-444
-431
-304
-91
272
400
245
-146
-476
-492
-443
-489
-477
-258
89
219
177
-149
-472
-628
-682
-688
-656
-404
28
305
236
-25
-372
-560
-667
-572
-646
-505
-168
39
-6
-408
-789
-833
-736
-696
-614
-319
72
310
191
-215
-586
-638
-802
-916
-816
-541
-139
197
168
-190
-605
-836
-797
-960
-914
-616
-264
-44
-160
-520
-877
-798
-844
-1023
-912
-646
-344
-140
-169
-672
-917
-804
-880
-802
-774
-767
-528
-344
-396
-628
-880
-1135
-1191
-1193
-1028
-671
-157
-13
-366
-848
-1112
-1209
-1216
-1168
-1163
-860
-387
-180
-236
-613
-1080
-1271
-1321
-1196
-1102
-874
-480
-260
-339
-696
-984
-944
-1011
-1111
-1127
-878
-335
-96
-329
-816
-1020
-1099
-1209
-1295
-1264
-992
-424
-187
-319
-620
-823
-1020
-1103
-1214
-1306
-1120
-679
-393
-448
-778
-987
-1092
-1240
-1264
-1228
-976
-560
-274
-350
-857
-1185
-1263
-1304
-1353
-1376
-1192
-655
-313
-484
-1017
-1287
-1416
-1404
-1470
-1472
-1223
-717
-379
-489
-1029
-1292
-1340
-1365
-1452
-1568
-1464
-998
-790
-948
-1385
-1661
-1684
-1681
-1683
-1636
-1211
-608
-300
35
162
218
447
722
812
969
1212
1571
1476
1084
473
-142
-338
-832
-1491
-1973
-1860
-1232
-900
-903
-1264
-1560
-1669
-1629
-1800
-2049
-1728
-1132
-878
-959
-1108
-1289
-1308
-1270
-1393
-1426
-1232
-814
-644
-800
-1328
-1616
-1497
-1577
-1737
-1772
-1509
-1014
-767
-800
-1169
-1568
-1626
-1740
-1632
-1746
-1592
-1152
-833
-912
-1300
-1546
-1503
-1721
-1753
-1836
-1576
-1134
-884
-964
-1198
-1332
-1547
-1673
-1756
-1721
-1451
-1020
-832
-938
-1290
-1544
-1440
-1470
-1616
-1440
-1342
-889
-675
-905
-1248
-1622
-1544
-1452
-1616
-1528
-1179
-720
-568
-649
-1112
-1428
-1501
-1483
-1486
-1280
-1088
-626
-312
-440
-903
-1190
-1277
-1301
-1232
-1000
-720
-227
96
-208
-561
-846
-793
-649
-832
-969
-638
-234
-171
-186
-280
-792
-937
-1016
-956
-852
-572
-178
42
-80
-598
-945
-1039
-1051
-1085
-1024
-682
-236
-88
-213
-530
-982
-1232
-1349
-1513
-1597
-1348
-892
-736
-808
-1200
-1611
-1652
-1704
-1953
-2042
-1807
-1411
-1238
-1344
-1700
-2040
-2212
-2220
-2130
-2201
-1988
-1569
-1284
-1184
-1545
-1824
-2076
-2401
-2464
-2318
-2009
-1564
-1347
-1689
-2224
-2553
-2484
-2464
-2364
-2442
-2297
-1877
-1632
-1711
-1995
-2393
-2599
-2652
-2607
-2598
-2308
-1800
-1536
-1697
-2027
-2432
-2673
-2687
-2576
-2469
-2168
-1753
-1576
-1715
-2025
-2176
-2242
-2372
-2514
-2531
-2316
-1888
-1625
-1792
-2216
-2320
-2265
-2158
-2150
-2212
-2302
-1952
-1739
-1840
-2240
-2472
-2550
-2598
-2598
-2706
-2464
-2032
-1797
-1831
-2122
-2368
-2332
-2437
-2574
-2716
-2553
-2163
-1824
-1760
-2020
-2491
-2648
-2592
-2816
-2882
-2547
-2002
-1642
-1764
-2250
-2725
-2872
-2821
-2804
-2792
-2552
-2224
-1988
-2080
-2506
-2799
-2861
-2960
-3086
-3168
-2951
-2304
-1978
-2113
-2499
-2789
-2877
-2950
-2995
-2960
-2832
-2344
-2072
-2353
-2608
-2835
-2789
-2804
-2939
-3144
-2920
-2496
-2152
-2256
-2638
-3042
-3204
-3252
-3226
-3242
-2902
-2465
-2292
-2306
-2448
-2804
-3061
-3264
-3194
-3065
-2891
-2484
-2238
-2168
-2472
-2816
-3001
-3124
-3184
-3103
-3008
-2604
-2256
-2394
-2781
-2993
-2973
-2996
-3049
-3111
-2912
-2505
-2308
-2400
-2796
-3205
-3208
-3196
-3211
-3151
-2892
-2421
-2258
-2518
-3004
-3242
-3245
-3232
-3161
-3223
-3004
-2554
-2368
-2566
-2909
-3221
-3434
-3524
-3372
-3422
-3183
-2720
-2465
-2472
-2737
-3104
-3274
-3317
-3328
-3304
-3118
-2726
-2617
-2684
-2937
-3231
-3293
-3263
-3294
-3314
-2976
-2540
-2375
-2496
-2817
-3287
-3333
-3248
-3320
-3492
-3377
-2844
-2596
-2580
-2852
-3252
-3368
-3345
-3422
-3400
-3228
-2739
-2640
-2798
-3064
-3329
-3560
-3497
-3504
-3539
-3277
-2740
-2536
-2715
-2940
-3344
-3232
-3187
-3364
-3624
-3415
-2886
-2494
-2464
-2976
-3528
-3404
-3360
-3497
-3606
-3480
-2960
-2719
-2807
-3120
-3548
-3664
-3616
-3576
-3492
-3436
-3237
-3198
-3352
-3536
-3792
-3848
-3716
-3531
-3236
-2668
-1952
-1316
-912
-975
-1296
-1381
-1295
-1160
-1033
-909
-800
-716
-1043
-1600
-2608
-3330
-3752
-3900
-3880
-3513
-3183
-2836
-2941
-3304
-3570
-3801
-3842
-3888
-3936
-3835
-3196
-2748
-2762
-3100
-3344
-3376
-3420
-3537
-3653
-3432
-3106
-2903
-2883
-3216
-3624
-3569
-3528
-3723
-3816
-3730
-3280
-3008
-3097
-3414
-3683
-3693
-3545
-3583
-3580
-3360
-3040
-2904
-3049
-3488
-3691
-3789
-3964
-3872
-3688
-3516
-3125
-2768
-2953
-3303
-3580
-3680
-3720
-3710
-3628
-3398
-3012
-2906
-3065
-3392
-3722
-3879
-3897
-3789
-3709
-3566
-3146
-2752
-2819
-3104
-3449
-3741
-3748
-3678
-3711
-3372
-2907
-2732
-2785
-3054
-3318
-3453
-3420
-3352
-3355
-3112
-2704
-2480
-2617
-2870
-3200
-3257
-3225
-3174
-3230
-3032
-2629
-2368
-2484
-2791
-3012
-2961
-2970
-2978
-2858
-2672
-2232
-2003
-2106
-2559
-2885
-3076
-3149
-3104
-2946
-2680
-2320
-2072
-2168
-2331
-2649
-2847
-2950
-3036
-3172
-3066
-2592
-2464
-2604
-3089
-3328
-3448
-3534
-3564
-3673
-3568
-3145
-2991
-2936
-3273
-3726
-3983
-4208
-4304
-4332
-4001
-3672
-3441
-3400
-3617
-3997
-4214
-4231
-4384
-4414
-4294
-3848
-3472
-3559
-3902
-4196
-4407
-4576
-4639
-4636
-4397
-3973
-3544
-3637
-4000
-4449
-4576
-4588
-4677
-4636
-4528
-3866
-3548
-3637
-3986
-4385
-4405
-4584
-4569
-4629
-4280
-3872
-3680
-3814
-4100
-4170
-4251
-4356
-4409
-4520
-4398
-3933
-3818
-3997
-4136
-4388
-4463
-4544
-4533
-4614
-4487
-4049
-3760
-3798
-4192
-4545
-4484
-4512
-4668
-4776
-4592
-4133
-3730
-3697
-3997
-4425
-4500
-4448
-4529
-4613
-4544
-4161
-3904
-3993
-4322
-4704
-4875
-4913
-4832
-4804
-4488
-4033
-3824
-3964
-4373
-4756
-4796
-4889
-4776
-4736
-4505
-4204
-3970
-4152
-4605
-4949
-4988
-5039
-4968
-5044
-4868
-4506
-4156
-4106
-4415
-4650
-4544
-4501
-4629
-4660
-4620
-4315
-4114
-4232
-4553
-4810
-4786
-4841
-4924
-5033
-4876
-4360
-4092
-4188
-4553
-4848
-4892
-4898
-4960
-5021
-4815
-4352
-3997
-4133
-4577
-5048
-5160
-5218
-5244
-5114
-4872
-4528
-4216
-4348
-4651
-5050
-4977
-5033
-5116
-5097
-4880
-4488
-4219
-4204
-4577
-5001
-5109
-5132
-5188
-5136
-4959
-4482
-4196
-4270
-4598
-4965
-5071
-5067
-5172
-5272
-5056
-4530
-4249
-4405
-4775
-5148
-5190
-5124
-4896
-5008
-5035
-4624
-4405
-4508
-4792
-5103
-5230
-5248
-5196
-5333
-5100
-4573
-4288
-4376
-4716
-5138
-5263
-5349
-5261
-5168
-4912
-4532
-4406
-4544
-4959
-5281
-5308
-5325
-5408
-5301
-4920
-4564
-4261
-4382
-4652
-5060
-5224
-5222
-5328
-5240
-4943
-4620
-4265
-4330
-4667
-5050
-5116
-5129
-5111
-5020
-4826
-4591
-4384
-4508
-4970
-5293
-5424
-5282
-5220
-5184
-4960
-4682
-4559
-4641
-4884
-5148
-5449
-5361
-5285
-5346
-5042
-4648
-4430
-4672
-5076
-5404
-5419
-5445
-5517
-5450
-5184
-4832
-4563
-4518
-4784
-5162
-5310
-5305
-5405
-5428
-5248
-4894
-4703
-4634
-4894
-5198
-5364
-5337
-5405
-5512
-5360
-5052
-4835
-4948
-5377
-5758
-5657
-5226
-4948
-4682
-4245
-3404
-2852
-2427
-2584
-2814
-2846
-2701
-2712
-2752
-2773
-2600
-2617
-3183
-4020
-4877
-5487
-5760
-5758
-5514
-5315
-4902
-4614
-4825
-5094
-5412
-5324
-5441
-5568
-5469
-5297
-4877
-4660
-4693
-4965
-5285
-5372
-5400
-5247
-5280
-5151
-4828
-4613
-4579
-4883
-5220
-5364
-5402
-5380
-5394
-5068
-4720
-4596
-4816
-5274
-5776
-5670
-5653
-5636
-5560
-5318
-4862
-4527
-4558
-4816
-5249
-5424
-5557
-5484
-5351
-5009
-4657
-4553
-4814
-5193
-5568
-5576
-5593
-5567
-5552
-5328
-4793
-4455
-4588
-4933
-5198
-5176
-5210
-5272
-5236
-5056
-4653
-4479
-4622
-4857
-5160
-5296
-5165
-4977
-4928
-4842
-4440
-4265
-4421
-4901
-5328
-5290
-5070
-5062
-5004
-4736
-4193
-3904
-3980
-4279
-4524
-4512
-4544
-4580
-4575
-4534
-4041
-3792
-3852
-4184
-4588
-4532
-4624
-4721
-4748
-4512
-3875
-3512
-3551
-3980
-4324
-4303
-4270
-4421
-4684
-4516
-3964
-3712
-3831
-4076
-4588
-4796
-4704
-4693
-4590
-4405
-4078
-3766
-3968
-4397
-4894
-5120
-5132
-5200
-5316
-5172
-4763
-4579
-4656
-4997
-5296
-5353
-5497
-5648
-5705
-5540
-5178
-4951
-5024
-5344
-5672
-5743
-5718
-5664
-5742
-5676
-5322
-4969
-4889
-5262
-5632
-5861
-5874
-5892
-5971
-5881
-5484
-5178
-5169
-5480
-5820
-5888
-5872
-5852
-5792
-5645
-5296
-4981
-5072
-5381
-5674
-5800
-5905
-6076
-6150
-5864
-5308
-5024
-5062
-5380
-5816
-6015
-6044
-5970
-5856
-5636
-5185
-5054
-5123
-5508
-6019
-6192
-6156
-6061
-6070
-5977
-5539
-5042
-5168
-5456
-5817
-5936
-6047
-6076
-6196
-5878
-5550
-5279
-5356
-5678
-5990
-6068
-6200
-6176
-6105
-5887
-5493
-5194
-5332
-5608
-5844
-5817
-5864
-5884
-6036
-6108
-5792
-5448
-5562
-5872
-6222
-6347
-6112
-6000
-6000
-5871
-5608
-5328
-5406
-5748
-6220
-6228
-6201
-6282
-6317
-6051
-5508
-5090
-5184
-5609
-5910
-6031
-6245
-6358
-6364
-6106
-5433
-4984
-4921
-5487
-6032
-6424
-6592
-6713
-6519
-6209
-5821
-5590
-5673
-5973
-6265
-6353
-6410
-6331
-6236
-6048
-5584
-5284
-5376
-5805
-6219
-6423
-6491
-6532
-6398
-6112
-5600
-5321
-5492
-5810
-6284
-6533
-6608
-6596
-6416
-6226
-5872
-5464
-5494
-5868
-6252
-6416
-6476
-6479
-6528
-6262
-5643
-5326
-5389
-5850
-6313
-6488
-6476
-6316
-6384
-6185
-5862
-5616
-5547
-5777
-6191
-6282
-6123
-6104
-6160
-6112
-5760
-5496
-5658
-6161
-6471
-6492
-6520
-6457
-6408
-6138
-5632
-5384
-5476
-5726
-6233
-6457
-6534
-6537
-6408
-6093
-5673
-5449
-5556
-5980
-6415
-6496
-6576
-6568
-6504
-6409
-5936
-5537
-5558
-6009
-6400
-6476
-6475
-6486
-6557
-6340
-5808
-5578
-5676
-5995
-6426
-6541
-6600
-6560
-6542
-6265
-6061
-5923
-5970
-6276
-6546
-6670
-6612
-6493
-6425
-6220
-5840
-5642
-5816
-6144
-6512
-6518
-6569
-6512
-6522
-6278
-5953
-5860
-5984
-6313
-6752
-6784
-6860
-6986
-6977
-6896
-6469
-6080
-5994
-6148
-6100
-5790
-5542
-5335
-5161
-4581
-3862
-3349
-3422
-3645
-3820
-4004
-4350
-4524
-4841
-5054
-5094
-5296
-5863
-6303
-6540
-6424
-6334
-6384
-6584
-6535
-6107
-5753
-5664
-6026
-6460
-6535
-6569
-6649
-6704
-6416
-5800
-5584
-5632
-6022
-6420
-6432
-6262
-6469
-6461
-6334
-6044
-5758
-5852
-6218
-6596
-6694
-6828
-6778
-6730
-6480
-5976
-5680
-5644
-6104
-6497
-6461
-6493
-6579
-6576
-6282
-5800
-5450
-5627
-6189
-6588
-6548
-6496
-6468
-6407
-6264
-5827
-5689
-5805
-5961
-6276
-6393
-6352
-6396
-6236
-6126
-5722
-5363
-5417
-5745
-6105
-6294
-6397
-6381
-6364
-6208
-5808
-5456
-5513
-5855
-6110
-6210
-6185
-6137
-6184
-6004
-5544
-5290
-5344
-5712
-5913
-5792
-5780
-5621
-5445
-5390
-5145
-4897
-4992
-5388
-5696
-5742
-5808
-5952
-5737
-5360
-4891
-4848
-4798
-4843
-5219
-5476
-5600
-5742
-5696
-5389
-4965
-4694
-4679
-4924
-5372
-5335
-5392
-5424
-5464
-5297
-4937
-4561
-4599
-4982
-5352
-5660
-5876
-6060
-6142
-6002
-5644
-5406
-5506
-5721
-6072
-6147
-6187
-6347
-6336
-6156
-5848
-5707
-5831
-6164
-6448
-6612
-6584
-6680
-6693
-6463
-6186
-5948
-6020
-6576
-6931
-6997
-7064
-7043
-6998
-6737
-6339
-6123
-6304
-6805
-7175
-7151
-6945
-6928
-6882
-6592
-6133
-5904
-6052
-6460
-6747
-6761
-6800
-6832
-6778
-6640
-6203
-5961
-6159
-6448
-6825
-7060
-6922
-6864
-6874
-6687
-6238
-6069
-6238
-6592
-6784
-6788
-6824
-6852
-6889
-6772
-6410
-6104
-6245
-6545
-6703
-6782
-6784
-6728
-6899
-6977
-6483
-6144
-6300
-6724
-7070
-7016
-6969
-6892
-6908
-6684
-6304
-6047
-5986
-6369
-6616
-6708
-6736
-6828
-6914
-6785
-6309
-5984
-6043
-6280
-6633
-6870
-6928
-6920
-6990
-6814
-6208
-5913
-6180
-6553
-6831
-6936
-7082
-7040
-6987
-6788
-6458
-6180
-6240
-6638
-7023
-7193
-7135
-7103
-7067
-6690
-6160
-5964
-6048
-6464
-6820
-6896
-7041
-7060
-7144
-7096
-6651
-6222
-6275
-6512
-6900
-6793
-6724
-6653
-6639
-6509
-6216
-6064
-6216
-6576
-6950
-7040
-6869
-6777
-6820
-6736
-6378
-6192
-6353
-6813
-7168
-7095
-7038
-7116
-7098
-6757
-6384
-6426
-6576
-6811
-7029
-6950
-6955
-6976
-7002
-6892
-6542
-6363
-6390
-6732
-6896
-6992
-7098
-7039
-7036
-6896
-6512
-6281
-6329
-6618
-6868
-6887
-6973
-7079
-7063
-7048
-6649
-6252
-6282
-6726
-7072
-7081
-7029
-6955
-6967
-6924
-6576
-6269
-6381
-6841
-7151
-7296
-6945
-6956
-6971
-6851
-6480
-6117
-6374
-6773
-7162
-7184
-7158
-7067
-6984
-6832
-6455
-6154
-6105
-6416
-6862
-7040
-7067
-7112
-7245
-7200
-6745
-6172
-6128
-6592
-7016
-7054
-7016
-7056
-7125
-7097
-6925
-6600
-6640
-6937
-7073
-7153
-7159
-7184
-7323
-7121
-6681
-6440
-6400
-6768
-7280
-7401
-7540
-7585
-7536
-7321
-6708
-6150
-6012
-6432
-6936
-7231
-7316
-7325
-7410
-7357
-7019
-6672
-6616
-6988
-7423
-7495
-7520
-7512
-7139
-6670
-5967
-5339
-5129
-5088
-5045
-4887
-4745
-4570
-4853
-4760
-4370
-4312
-4592
-5280
-6085
-6768
-7212
-7532
-7516
-7280
-6840
-6580
-6584
-6937
-7312
-7272
-7374
-7407
-7269
-6972
-6624
-6328
-6178
-6523
-6987
-7058
-6990
-7147
-7262
-6951
-6438
-6063
-6054
-6224
-6636
-6828
-7000
-7120
-7055
-6858
-6378
-6069
-6120
-6338
-6858
-7110
-7046
-6853
-6864
-6769
-6460
-6209
-6316
-6559
-6781
-6828
-6874
-6937
-6880
-6695
-6285
-6008
-6140
-6516
-6745
-6758
-6846
-6716
-6716
-6603
-6148
-5868
-5945
-6187
-6422
-6480
-6560
-6688
-6660
-6512
-6233
-5974
-5891
-6214
-6613
-6828
-6764
-6654
-6593
-6430
-5932
-5530
-5600
-5802
-6080
-6173
-6224
-6300
-6300
-6034
-5528
-5340
-5276
-5480
-5958
-6064
-5936
-5884
-5904
-5584
-5056
-4877
-4998
-5373
-5678
-5772
-5728
-5594
-5401
-5392
-5028
-4820
-4937
-5263
-5634
-5739
-5681
-5502
-5472
-5256
-4820
-4677
-4848
-5143
-5456
-5625
-5649
-5792
-5897
-5792
-5530
-5272
-5274
-5552
-5828
-6025
-6244
-6314
-6292
-6113
-5542
-5386
-5408
-5729
-6189
-6384
-6539
-6713
-6826
-6688
-6256
-5736
-5760
-6048
-6401
-6665
-6818
-6903
-6854
-6782
-6324
-6052
-6078
-6292
-6519
-6692
-6720
-6656
-6692
-6608
-6209
-6025
-6137
-6548
-6800
-6717
-6848
-6966
-6968
-6686
-6251
-5906
-6027
-6224
-6500
-6587
-6874
-7104
-7088
-6727
-6280
-5942
-5941
-6285
-6774
-7072
-6976
-6811
-6712
-6555
-6257
-6048
-6077
-6428
-6762
-6769
-6791
-6864
-6880
-6718
-6248
-6077
-6176
-6472
-6901
-7143
-7279
-7334
-7283
-6900
-6448
-6207
-6188
-6496
-6897
-6971
-7084
-7097
-7080
-6938
-6576
-6352
-6361
-6672
-7145
-7324
-7225
-7256
-7330
-7167
-6586
-6027
-6056
-6304
-6686
-6803
-6960
-7065
-6984
-6938
-6570
-6267
-6374
-6748
-7075
-6992
-6812
-6852
-6863
-6732
-6264
-6084
-6189
-6393
-6733
-6943
-6884
-6924
-6874
-6714
-6309
-6032
-6160
-6440
-6827
-7116
-7116
-7184
-7113
-6890
-6396
-6030
-6128
-6458
-6776
-6902
-6935
-6804
-6760
-6714
-6464
-6365
-6525
-6684
-6879
-7048
-6974
-6956
-7069
-7080
-6766
-6368
-6338
-6762
-7072
-7152
-7060
-7182
-7207
-7095
-6614
-6312
-6294
-6555
-6888
-6928
-6996
-7117
-7116
-6948
-6505
-6057
-5996
-6342
-6684
-6724
-6665
-6772
-6870
-6640
-6076
-5653
-5616
-5837
-5950
-6035
-6168
-6410
-6456
-6304
-5864
-5462
-5367
-5604
-5876
-5870
-5737
-5662
-5643
-5452
-5089
-4824
-4836
-5116
-5409
-5445
-5482
-5451
-5286
-4861
-4404
-3977
-4016
-4396
-4672
-4885
-4976
-4972
-4896
-4694
-4325
-3980
-3997
-4387
-4717
-4696
-4641
-4589
-4580
-4499
-4122
-3836
-3804
-4228
-4665
-4687
-4576
-4505
-4513
-4356
-4073
-3822
-3799
-4096
-4480
-4737
-4825
-4900
-4937
-4911
-4520
-4092
-3935
-4243
-4580
-4542
-4568
-4756
-4810
-4697
-4329
-4176
-4280
-4653
-5275
-5403
-5328
-5076
-4969
-4881
-4406
-3868
-3563
-3356
-2960
-2930
-2816
-2844
-3062
-3040
-2702
-2616
-2966
-3844
-4892
-5694
-6368
-6871
-7204
-7230
-6944
-6749
-6864
-7256
-7662
-7900
-7835
-7890
-8153
-8160
-7992
-7704
-7641
-7840
-8156
-8119
-8144
-8211
-8368
-8269
-7924
-7709
-7812
-7995
-8404
-8513
-8556
-8573
-8595
-8528
-8011
-7726
-7752
-8104
-8536
-8695
-8631
-8608
-8584
-8532
-8249
-8036
-8142
-8540
-9040
-9192
-9173
-9128
-9125
-8890
-8386
-8043
-8140
-8448
-8823
-9009
-9158
-9275
-9358
-9222
-8840
-8567
-8415
-8653
-9064
-9242
-9212
-9241
-9192
-9050
-8744
-8587
-8720
-9051
-9349
-9532
-9539
-9608
-9602
-9367
-8781
-8379
-8613
-9037
-9438
-9568
-9472
-9290
-9087
-8848
-8447
-8208
-8290
-8606
-8936
-9098
-9096
-8968
-8964
-8836
-8480
-8150
-8229
-8456
-8694
-8739
-8646
-8606
-8475
-8275
-7950
-7737
-7722
-8049
-8348
-8381
-8388
-8378
-8336
-8134
-7680
-7415
-7504
-7756
-8072
-8294
-8344
-8428
-8480
-8448
-8019
-7856
-7898
-8332
-8713
-8824
-8854
-8918
-9022
-8996
-8674
-8432
-8520
-9032
-9440
-9600
-9568
-9488
-9636
-9603
-9340
-8984
-9010
-9461
-10024
-10346
-10386
-10464
-10604
-10544
-10060
-9856
-9982
-10347
-10752
-10859
-10920
-11007
-10961
-10832
-10464
-10278
-10372
-10772
-11244
-11394
-11438
-11520
-11475
-11424
-11160
-11027
-11071
-11294
-11710
-11888
-11994
-12214
-12287
-12094
-11771
-11504
-11537
-11922
-12223
-12152
-12120
-12240
-12360
-12268
-12044
-11897
-11888
-12256
-12601
-12721
-12768
-12734
-12706
-12470
-12032
-11652
-11529
-11788
-12114
-12184
-12171
-12096
-12036
-11872
-11431
-11073
-11062
-11244
-11566
-11588
-11590
-11619
-11525
-11258
-10784
-10494
-10350
-10488
-10824
-10863
-10664
-10538
-10572
-10459
-10032
-9704
-9625
-9792
-10086
-10167
-10266
-10320
-10182
-10007
-9442
-8889
-8495
-8286
-8426
-8345
-7864
-8236
-8312
-8086
-7855
-8014
-7801
-7728
-7786
-7669
-7612
-7328
-7179
-6914
-6348
-5964
-6025
-6304
-6670
-6733
-6731
-6705
-6601
-6376
-5866
-5481
-5396
-5712
-5899
-6054
-6073
-6235
-6208
-6014
-5446
-5004
-4967
-5314
-5549
-5620
-5624
-5628
-5565
-5376
-4686
-4162
-4113
-4479
-4708
-4928
-5093
-5241
-5312
-5120
-4822
-4566
-4586
-4875
-5278
-5580
-5728
-5919
-6117
-6099
-6638
-7326
-7484
-7856
-8005
-7880
-7590
-7423
-7312
-6808
-6205
-5824
-5646
-5744
-5977
-5936
-5840
-5720
-5601
-5469
-5088
-4694
-4528
-4818
-5024
-4965
-4880
-4913
-4973
-4865
-4635
-4484
-4540
-4744
-5065
-5260
-5318
-5308
-5241
-5200
-4898
-4452
-4329
-4640
-5233
-5168
-5128
-5200
-5310
-5261
-4906
-4561
-4560
-4784
-5205
-5328
-5404
-5376
-5437
-5299
-4743
-4281
-4320
-4808
-5285
-5575
-5700
-5916
-5917
-5680
-5244
-4941
-5008
-5330
-5763
-5917
-5974
-6134
-6352
-6220
-5724
-5382
-5455
-5864
-6527
-6704
-6789
-6922
-6992
-6960
-6662
-6493
-6780
-7294
-7850
-7984
-7824
-7645
-7628
-7354
-6684
-6053
-5678
-5712
-5754
-5492
-5339
-5185
-4944
-4800
-4546
-4566
-4869
-5392
-6143
-6684
-7033
-7231
-7324
-7000
-6396
-5961
-6048
-6241
-6555
-6653
-6572
-6505
-6420
-6162
-5680
-5160
-4966
-5232
-5599
-5688
-5794
-5776
-5741
-5584
-5177
-4816
-4781
-5098
-5418
-5335
-5060
-4912
-5063
-5121
-4826
-4634
-4639
-4905
-5236
-5289
-5280
-5242
-5204
-5100
-4552
-4160
-4124
-4416
-5033
-5172
-5095
-5226
-5338
-5208
-4876
-4570
-4636
-4982
-5324
-5565
-5676
-5772
-5743
-5694
-5289
-4989
-5152
-5569
-6018
-6120
-6155
-6016
-5930
-5756
-5533
-5280
-5259
-5654
-6017
-6021
-6080
-6196
-6177
-6078
-5664
-5360
-5392
-5668
-5966
-6093
-6059
-5934
-5976
-5859
-5272
-4848
-4870
-5256
-5617
-5640
-5584
-5584
-5459
-5088
-4470
-4035
-3903
-4298
-4790
-5024
-5132
-5177
-5168
-5072
-4624
-4233
-4240
-4540
-4847
-4950
-4876
-4929
-5001
-4984
-4655
-4296
-4332
-4608
-5073
-5215
-5302
-5552
-5731
-5698
-5325
-5017
-5040
-5393
-5796
-6017
-6112
-6225
-6301
-6237
-5904
-5626
-5579
-5787
-6230
-6687
-6845
-7024
-7104
-7000
-6605
-6246
-6286
-6600
-7079
-7296
-7144
-7273
-7387
-7179
-6784
-6467
-6531
-6905
-7402
-7504
-7467
-7430
-7479
-7488
-7161
-7008
-7228
-7568
-7916
-8176
-8145
-8024
-8098
-8031
-7538
-7053
-7083
-7412
-7786
-7854
-7900
-7972
-8164
-8023
-7497
-7241
-7236
-7595
-8030
-8083
-8007
-7876
-7849
-7690
-7123
-6732
-6707
-6780
-7020
-7176
-7184
-7216
-7256
-7065
-6631
-6473
-6494
-6752
-7148
-7345
-7536
-7504
-7619
-7445
-6928
-6396
-6366
-6649
-6996
-7013
-7088
-7176
-7372
-7376
-6965
-6604
-6604
-7000
-7481
-7675
-7801
-7925
-7919
-7833
-7581
-7436
-7720
-8176
-8544
-8762
-9054
-9328
-9434
-9334
-8960
-8619
-8492
-8795
-9212
-9478
-9715
-9950
-10084
-10028
-9697
-9372
-9385
-9692
-10018
-10120
-10272
-10382
-10385
-10352
-9984
-9532
-9570
-9896
-10304
-10380
-10425
-10611
-10615
-10424
-9994
-9596
-9624
-9870
-10118
-10160
-10140
-9974
-9918
-9866
-9483
-9228
-9295
-9647
-9825
-9792
-9765
-9742
-9625
-9480
-8998
-8655
-8704
-9008
-9371
-9409
-9336
-9293
-9198
-9044
-8636
-8136
-8112
-8393
-8704
-8864
-8783
-8730
-8635
-8480
-8145
-7820
-7572
-7724
-8014
-7988
-8034
-8024
-8026
-7883
-7328
-6880
-6869
-7173
-7516
-7588
-7568
-7644
-7715
-7654
-7228
-6808
-6742
-7010
-7304
-7465
-7543
-7585
-7504
-7378
-7041
-6816
-6869
-7252
-7577
-7552
-7569
-7768
-7715
-7504
-7065
-6744
-6810
-7307
-7616
-7714
-7769
-7686
-7632
-7600
-7339
-7139
-7164
-7324
-7464
-7604
-7615
-7584
-7701
-7706
-7296
-6993
-6912
-7272
-7627
-7736
-7768
-7941
-8032
-7913
-7567
-7304
-7232
-7578
-8048
-8080
-7955
-7808
-7808
-7590
-7067
-6742
-6708
-7003
-7265
-7365
-7340
-7392
-7453
-7307
-6757
-6320
-6231
-6468
-6824
-6905
-6816
-6568
-6254
-5897
-5280
-4691
-4236
-4057
-3853
-3411
-2912
-2444
-2121
-1768
-1173
-675
-688
-1190
-1741
-2048
-2365
-2768
-3241
-3620
-3392
-2912
-2873
-3116
-3397
-3520
-3736
-3866
-3908
-3845
-3534
-3385
-3424
-3725
-3995
-4161
-4276
-4252
-4200
-3996
-3776
-3696
-3800
-4128
-4465
-4515
-4414
-4432
-4474
-4435
-4233
-4043
-4173
-4431
-4784
-4981
-4956
-4816
-4728
-4681
-4416
-4268
-4452
-4786
-5136
-5481
-5600
-5602
-5568
-5448
-4983
-4764
-4864
-5184
-5467
-5622
-5784
-5876
-5917
-6027
-5785
-5690
-5855
-6445
-7742
-8880
-9943
-11164
-12630
-14759
-17446
-20154
-22959
-25918
-28990
-31970
-32763
-32701
-32710
-32711
-32710
-32711
-32712
-32714
-32714
-32713
-32715
-32714
-32715
-32717
-32715
-32714
-32715
-32717
-32715
-32717
-32717
-32715
-32717
-32715
-32715
-31375
19669
32392
32400
32398
32336
32343
32336
32343
32350
32346
32336
32353
32336
32343
32337
32352
32336
32336
32340
32336
32339
32352
32347
32336
32343
32360
32337
32324
32348
32352
32337
31148
28483
26768
25086
23540
22166
20880
19952
19248
18416
17189
15826
14721
13840
12903
12062
11474
11146
10707
10109
9264
8212
7356
6753
6166
5591
5232
5207
5136
4656
3968
3325
2924
2677
2408
2151
1944
2136
2307
2098
1686
1248
1058
882
775
756
625
688
780
674
393
7
-314
-506
-538
-579
-508
-236
-38
-16
-160
-544
-772
-876
-888
-991
-936
-541
-342
-409
-754
-1245
-1526
-1515
-1528
-1591
-1530
-1181
-850
-864
-1134
-1631
-1869
-1958
-2102
-2223
-2173
-1868
-1608
-1616
-1917
-2349
-2533
-2586
-2799
-2903
-2825
-2463
-2122
-2236
-2608
-3020
-3161
-3268
-3353
-3352
-3240
-2800
-2509
-2484
-2680
-2989
-3247
-3425
-3552
-3672
-3625
-3216
-2952
-3000
-3264
-3608
-3699
-3772
-3798
-3829
-3791
-3388
-3152
-3224
-3642
-4045
-4144
-4194
-4236
-4252
-4200
-3849
-3624
-3750
-4012
-4132
-4404
-4395
-4232
-4240
-4163
-3754
-3393
-3424
-3864
-4316
-4419
-4368
-4509
-4632
-4640
-4269
-3947
-4053
-4459
-4784
-4957
-5079
-5199
-5196
-5069
-4632
-4388
-4475
-4871
-5322
-5325
-5340
-5362
-5296
-5256
-4884
-4622
-4649
-4934
-5296
-5480
-5479
-5446
-5364
-5254
-4794
-4171
-4183
-4540
-4978
-5178
-5350
-5426
-5447
-5264
-4777
-4376
-4363
-4656
-5035
-5248
-5237
-5244
-5356
-5300
-4896
-4627
-4587
-4812
-5197
-5386
-5273
-5187
-5194
-5053
-4598
-4333
-4304
-4579
-4812
-4944
-4978
-5001
-4928
-4792
-4292
-3874
-3942
-4328
-4797
-5047
-5040
-5092
-5208
-5104
-4692
-4476
-4569
-4960
-5329
-5465
-5477
-5552
-5594
-5464
-5009
-4683
-4761
-5056
-5506
-5648
-5652
-5739
-5824
-5724
-5190
-4810
-4852
-5345
-5792
-5969
-6000
-6068
-6106
-5968
-5514
-5148
-5182
-5545
-5804
-6015
-6199
-6345
-6448
-6392
-6055
-5590
-5542
-5898
-6403
-6426
-6265
-6338
-6551
-6516
-6086
-5728
-5818
-6293
-6704
-6878
-6901
-7001
-6924
-6728
-6308
-5955
-5945
-6281
-6593
-6540
-6260
-6014
-5792
-5378
-4697
-4085
-3884
-4025
-4348
-4510
-4748
-5098
-5360
-5525
-5452
-5548
-6045
-6730
-7425
-7664
-7584
-7603
-7764
-7709
-7396
-7168
-7206
-7466
-7788
-7851
-7832
-7785
-7758
-7504
-6998
-6596
-6482
-6760
-7201
-7448
-7513
-7628
-7768
-7688
-7339
-6972
-6897
-7192
-7582
-7672
-7615
-7615
-7516
-7369
-6944
-6683
-6735
-7003
-7520
-7823
-7817
-7861
-7872
-7708
-7196
-6818
-6700
-7038
-7394
-7526
-7613
-7569
-7584
-7518
-7154
-6752
-6630
-6960
-7473
-7648
-7523
-7561
-7522
-7340
-6861
-6538
-6555
-6864
-7323
-7420
-7335
-7296
-7291
-7182
-6847
-6546
-6505
-6837
-7152
-7401
-7411
-7270
-7228
-7267
-6888
-6544
-6448
-6720
-7128
-7246
-7194
-7189
-7025
-6737
-6236
-5903
-5875
-6191
-6736
-6851
-6875
-6842
-6794
-6697
-6296
-5953
-5924
-6234
-6627
-6854
-6909
-6939
-6940
-6832
-6404
-6019
-5988
-6376
-6779
-6883
-6909
-6975
-7037
-6980
-6505
-6107
-6126
-6568
-7176
-7364
-7392
-7465
-7520
-7413
-7056
-6771
-6814
-7210
-7630
-7869
-7904
-8000
-8032
-7913
-7520
-7205
-7258
-7626
-8132
-8287
-8308
-8323
-8354
-8292
-7936
-7616
-7568
-7918
-8403
-8576
-8589
-8644
-8663
-8597
-8143
-7880
-7907
-8200
-8630
-8812
-8784
-8768
-8818
-8748
-8313
-8010
-8003
-8348
-8762
-8845
-8873
-8889
-8919
-8799
-8350
-8021
-8026
-8300
-8731
-8885
-8944
-9009
-8976
-8857
-8428
-8054
-8038
-8370
-8848
-9018
-9040
-9041
-9048
-8887
-8463
-8157
-8121
-8441
-8912
-9068
-9110
-9040
-9030
-8943
-8446
-8064
-8175
-8484
-8769
-8930
-8994
-8979
-8978
-8906
-8458
-8112
-8106
-8472
-8910
-8992
-9004
-8992
-9001
-8886
-8485
-8168
-8144
-8416
-8840
-8984
-8981
-8967
-8952
-8891
-8464
-8086
-8081
-8434
-8770
-8938
-8972
-8937
-8960
-8896
-8487
-8114
-8144
-8523
-8975
-9034
-8972
-8957
-9008
-8881
-8418
-8052
-8006
-8397
-8901
-9015
-8976
-8917
-8920
-8828
-8440
-8142
-8123
-8388
-8703
-8888
-8976
-9060
-9083
-8951
-8524
-8112
-8031
-8420
-8880
-9072
-9117
-9068
-9051
-8927
-8521
-8248
-8236
-8540
-9040
-9116
-9071
-9088
-9058
-8992
-8614
-8235
-8241
-8570
-8905
-9076
-9028
-9070
-9148
-9040
-8610
-8272
-8235
-8553
-9034
-9175
-9102
-9111
-9116
-9014
-8560
-8271
-8449
-8707
-9082
-9263
-9262
-9248
-9285
-9225
-8809
-8448
-8404
-8725
-9082
-9223
-9179
-9212
-9247
-9173
-8688
-8305
-8172
-8473
-8896
-9002
-9019
-9024
-8988
-8938
-8534
-8181
-8141
-8384
-8858
-9002
-9055
-9102
-9078
-8939
-8494
-8216
-8228
-8588
-8952
-9200
-9063
-9064
-9173
-9020
-8626
-8218
-8135
-8536
-9076
-9158
-9013
-9115
-9242
-9177
-8673
-8264
-8234
-8545
-9033
-9248
-9258
-9324
-9361
-9194
-8697
-8400
-8354
-8624
-9074
-9352
-9380
-9375
-9376
-9260
-8826
-8434
-8508
-8884
-9296
-9384
-9387
-9381
-9404
-9249
-8716
-8370
-8272
-8552
-9062
-9453
-9588
-9598
-9576
-9436
-8900
-8384
-8136
-8125
-8217
-8043
-7704
-7345
-7168
-6858
-6313
-5761
-5596
-5850
-6320
-6722
-7088
-7603
-8304
-8713
-8616
-8580
-8666
-8891
-9240
-9491
-9552
-9609
-9600
-9407
-8816
-8350
-8280
-8624
-9154
-9352
-9370
-9360
-9148
-8844
-8412
-8246
-8296
-8592
-8927
-8930
-8949
-9128
-9264
-9248
-8897
-8608
-8603
-8894
-9353
-9552
-9488
-9576
-9737
-9640
-9114
-8472
-8261
-8560
-8980
-8930
-8838
-8853
-8981
-9040
-8586
-8116
-7957
-8360
-8883
-9048
-8960
-8940
-8929
-8728
-8118
-7584
-7457
-7850
-8324
-8624
-8507
-8586
-8736
-8832
-8505
-8141
-8057
-8277
-8679
-8718
-8555
-8576
-8624
-8552
-8074
-7671
-7541
-7829
-8297
-8399
-8314
-8461
-8596
-8625
-8264
-7884
-7812
-7997
-8110
-8176
-8088
-8025
-7872
-7771
-7359
-6979
-6917
-7244
-7676
-7790
-7727
-7690
-7692
-7576
-7160
-6832
-6872
-7197
-7616
-7725
-7756
-7665
-7672
-7576
-7184
-6847
-6911
-7296
-7744
-7935
-7897
-8048
-8118
-8057
-7575
-7096
-7036
-7478
-7888
-8161
-8280
-8385
-8476
-8431
-8064
-7765
-7760
-8089
-8516
-8697
-8620
-8638
-8682
-8640
-8331
-7875
-7876
-8353
-8905
-9237
-9291
-9366
-9390
-9323
-8874
-8522
-8464
-8814
-9264
-9318
-9312
-9314
-9280
-9161
-8745
-8243
-8156
-8555
-9089
-9355
-9349
-9440
-9440
-9290
-8881
-8507
-8511
-8820
-9232
-9383
-9406
-9400
-9456
-9223
-8622
-8302
-8431
-8809
-9221
-9314
-9264
-9286
-9377
-9382
-8920
-8556
-8604
-8600
-8912
-9136
-9066
-8998
-9008
-8957
-8604
-8205
-8134
-8483
-9019
-9180
-9228
-9232
-9211
-9036
-8532
-8236
-8269
-8620
-9140
-9312
-9297
-9184
-9034
-8891
-8633
-8440
-8520
-8960
-9379
-9478
-9405
-9428
-9462
-9342
-8888
-8516
-8461
-8782
-9246
-9396
-9432
-9440
-9434
-9299
-8832
-8470
-8495
-8901
-9385
-9568
-9589
-9572
-9583
-9492
-9048
-8672
-8608
-8977
-9344
-9613
-9624
-9625
-9636
-9564
-9131
-8780
-8756
-8984
-9408
-9573
-9576
-9559
-9579
-9505
-9092
-8693
-8612
-8933
-9412
-9568
-9560
-9548
-9539
-9497
-9069
-8676
-8637
-8960
-9281
-9468
-9478
-9536
-9611
-9576
-9121
-8700
-8655
-8956
-9423
-9548
-9556
-9570
-9575
-9454
-9011
-8613
-8506
-8800
-9311
-9488
-9484
-9492
-9510
-9412
-9057
-8633
-8568
-8873
-9178
-9345
-9328
-9468
-9450
-9369
-8928
-8600
-8600
-8999
-9456
-9645
-9632
-9658
-9694
-9569
-9135
-8769
-8716
-9021
-9486
-9615
-9574
-9593
-9592
-9527
-9098
-8695
-8644
-8920
-9305
-9570
-9600
-9612
-9648
-9531
-9030
-8728
-8648
-8874
-9292
-9417
-9360
-9356
-9408
-9407
-9056
-8672
-8575
-8854
-9312
-9488
-9463
-9468
-9542
-9482
-8976
-8612
-8633
-8929
-9351
-9528
-9488
-9489
-9521
-9434
-9019
-8627
-8596
-8905
-9372
-9621
-9637
-9616
-9609
-9488
-9045
-8672
-8652
-8960
-9263
-9502
-9625
-9685
-9696
-9568
-9114
-8701
-8634
-9002
-9435
-9648
-9644
-9668
-9609
-9547
-9162
-8800
-8673
-8992
-9354
-9560
-9599
-9608
-9628
-9581
-9196
-8892
-8898
-9261
-9805
-9988
-9924
-9782
-9559
-9264
-8568
-7888
-7504
-7461
-7616
-7427
-7116
-6945
-6822
-6650
-6148
-5813
-6000
-6544
-7339
-7849
-8368
-8868
-9236
-9281
-8852
-8400
-8288
-8629
-9200
-9516
-9500
-9470
-9474
-9329
-8928
-8512
-8389
-8553
-9061
-9232
-9250
-9200
-9309
-9177
-8691
-8304
-8313
-8681
-9183
-9282
-9280
-9251
-9320
-9309
-8928
-8537
-8480
-8753
-9152
-9456
-9504
-9524
-9560
-9497
-9020
-8634
-8534
-8869
-9324
-9452
-9492
-9462
-9448
-9298
-8850
-8477
-8396
-8616
-9016
-9207
-9218
-9179
-9145
-9104
-8728
-8323
-8146
-8364
-8719
-8960
-8949
-8904
-8908
-8853
-8389
-8012
-8024
-8317
-8733
-8867
-8835
-8834
-8765
-8656
-8244
-7859
-7773
-8132
-8614
-8640
-8597
-8593
-8592
-8473
-7996
-7636
-7540
-7813
-8056
-8233
-8268
-8248
-8180
-8146
-7723
-7264
-7151
-7410
-7832
-8001
-8051
-8089
-8032
-7843
-7322
-6909
-6850
-7178
-7609
-7774
-7828
-7852
-7805
-7662
-7252
-6874
-6843
-7140
-7576
-7840
-7870
-7844
-7860
-7836
-7412
-7104
-7139
-7490
-7982
-8157
-8168
-8234
-8304
-8290
-7900
-7572
-7583
-7922
-8416
-8673
-8672
-8695
-8750
-8708
-8320
-7952
-7916
-8215
-8653
-8792
-8899
-8957
-9008
-8923
-8556
-8195
-8160
-8483
-9006
-9137
-9112
-9118
-9115
-9063
-8581
-8126
-8062
-8348
-8797
-9042
-9068
-9152
-9183
-9116
-8648
-8213
-8248
-8568
-9087
-9181
-9111
-9057
-9168
-9132
-8736
-8361
-8346
-8635
-9180
-9301
-9153
-9200
-9216
-9180
-8768
-8355
-8201
-8475
-8896
-9194
-9166
-9134
-9151
-9098
-8714
-8383
-8310
-8608
-9049
-9222
-9177
-9212
-9187
-9095
-8664
-8268
-8282
-8621
-9104
-9267
-9238
-9305
-9309
-9237
-8812
-8388
-8330
-8708
-9033
-9281
-9280
-9336
-9350
-9257
-8922
-8453
-8316
-8671
-9156
-9339
-9321
-9328
-9384
-9278
-8906
-8494
-8408
-8720
-9195
-9328
-9321
-9333
-9383
-9228
-8767
-8344
-8313
-8681
-9049
-9317
-9334
-9437
-9360
-9301
-8882
-8506
-8388
-8632
-9129
-9272
-9240
-9351
-9342
-9232
-8732
-8328
-8265
-8588
-9109
-9276
-9201
-9227
-9233
-9134
-8736
-8401
-8330
-8605
-9012
-9280
-9307
-9292
-9340
-9252
-8767
-8353
-8304
-8676
-9124
-9330
-9315
-9310
-9318
-9220
-8779
-8368
-8319
-8668
-9019
-9210
-9208
-9224
-9180
-9035
-8696
-8329
-8250
-8544
-8945
-9208
-9253
-9322
-9334
-9259
-8816
-8409
-8356
-8681
-9180
-9396
-9376
-9344
-9357
-9267
-8832
-8425
-8334
-8577
-9060
-9248
-9260
-9349
-9336
-9222
-8760
-8343
-8249
-8537
-8953
-9146
-9118
-9136
-9155
-9100
-8610
-8232
-8144
-8464
-8996
-9247
-9242
-9203
-9200
-9189
-8807
-8324
-8152
-8481
-8944
-9145
-9174
-9211
-9236
-9151
-8753
-8343
-8260
-8544
-9000
-9221
-9216
-9241
-9273
-9260
-8863
-8472
-8349
-8631
-9045
-9220
-9196
-9185
-9152
-9104
-8648
-8197
-8110
-8481
-8912
-9112
-9076
-9091
-9129
-9044
-8688
-8301
-8149
-8374
-8872
-9101
-9089
-9063
-9070
-8979
-8528
-8176
-8118
-8496
-9121
-9352
-9412
-9416
-9387
-9210
-8695
-8159
-7833
-7850
-7989
-7930
-7700
-7412
-7142
-6863
-6232
-5681
-5648
-6087
-6844
-7353
-7632
-7984
-8419
-8808
-8727
-8537
-8415
-8597
-8956
-9107
-9068
-9136
-9178
-9086
-8645
-8147
-8025
-8284
-8614
-8832
-8801
-8798
-8755
-8713
-8321
-7907
-7901
-8217
-8691
-8890
-8992
-9092
-9164
-9054
-8620
-8283
-8160
-8453
-8936
-9129
-9124
-9144
-9168
-9161
-8736
-8335
-8234
-8543
-8914
-9183
-9195
-9196
-9235
-9136
-8733
-8328
-8198
-8412
-8943
-9156
-9120
-9115
-9064
-8964
-8544
-8132
-8032
-8321
-8773
-8856
-8752
-8761
-8736
-8608
-8136
-7721
-7616
-7934
-8300
-8559
-8520
-8510
-8494
-8331
-7866
-7432
-7231
-7512
-8030
-8198
-8119
-8107
-8080
-7943
-7488
-7022
-6856
-7102
-7572
-7768
-7688
-7664
-7588
-7459
-7038
-6565
-6376
-6633
-7100
-7345
-7300
-7243
-7242
-7162
-6736
-6336
-6223
-6539
-7046
-7188
-7152
-7101
-6970
-6892
-6552
-6192
-6037
-6360
-6916
-7167
-7167
-7217
-7264
-7207
-6824
-6442
-6368
-6668
-7178
-7502
-7552
-7624
-7650
-7641
-7289
-6938
-6883
-7191
-7737
-7993
-8000
-8030
-8089
-8052
-7669
-7274
-7180
-7496
-7959
-8212
-8245
-8256
-8323
-8299
-7892
-7449
-7360
-7740
-8290
-8485
-8505
-8528
-8542
-8457
-8070
-7649
-7552
-7861
-8361
-8558
-8571
-8531
-8555
-8476
-8080
-7616
-7552
-7852
-8227
-8523
-8544
-8576
-8593
-8555
-8159
-7737
-7648
-7944
-8436
-8626
-8608
-8617
-8571
-8540
-8140
-7696
-7588
-7878
-8348
-8447
-8372
-8413
-8373
-8240
-7791
-7404
-7305
-7560
-7910
-8149
-8168
-8193
-8262
-8207
-7764
-7364
-7228
-7513
-8064
-8274
-8240
-8277
-8313
-8251
-7869
-7432
-7360
-7669
-8204
-8437
-8496
-8526
-8566
-8568
-8121
-7664
-7493
-7680
-8091
-8394
-8424
-8484
-8492
-8468
-8080
-7680
-7560
-7849
-8372
-8575
-8548
-8600
-8605
-8512
-8089
-7672
-7553
-7868
-8369
-8572
-8546
-8512
-8549
-8526
-8133
-7732
-7676
-7924
-8304
-8562
-8592
-8576
-8612
-8586
-8268
-7897
-7764
-7984
-8409
-8656
-8667
-8684
-8666
-8576
-8213
-7814
-7692
-7996
-8481
-8652
-8689
-8768
-8713
-8548
-8109
-7773
-7656
-7856
-8315
-8487
-8544
-8620
-8624
-8522
-8162
-7761
-7696
-7966
-8460
-8630
-8596
-8629
-8647
-8593
-8164
-7696
-7583
-7834
-8309
-8494
-8456
-8476
-8489
-8431
-7998
-7617
-7425
-7616
-8081
-8289
-8285
-8281
-8312
-8288
-7972
-7613
-7552
-7808
-8336
-8523
-8452
-8432
-8400
-8336
-7910
-7497
-7402
-7672
-8153
-8291
-8280
-8256
-8265
-8173
-7844
-7430
-7284
-7524
-7968
-8223
-8236
-8313
-8312
-8211
-7786
-7369
-7198
-7418
-7928
-8124
-8041
-8057
-8051
-7980
-7624
-7272
-7158
-7409
-7837
-8114
-8138
-8198
-8232
-8178
-7840
-7417
-7248
-7517
-7978
-8196
-8208
-8218
-8244
-8223
-7838
-7455
-7365
-7616
-8047
-8302
-8300
-8305
-8331
-8304
-7872
-7469
-7376
-7628
-7993
-8224
-8240
-8240
-8242
-8215
-7826
-7400
-7248
-7456
-7949
-8100
-8120
-8185
-8160
-7988
-7593
-7268
-7233
-7473
-7968
-8128
-8076
-8048
-8080
-8061
-7758
-7434
-7417
-7738
-8120
-8462
-8493
-8501
-8447
-8229
-7649
-6988
-6560
-6493
-6613
-6446
-6156
-5840
-5692
-5569
-5052
-4594
-4542
-5056
-5736
-6268
-6691
-7248
-7764
-8125
-7886
-7461
-7337
-7566
-7929
-8300
-8463
-8531
-8526
-8360
-7904
-7488
-7325
-7503
-7888
-8012
-8020
-8045
-8080
-8025
-7676
-7356
-7280
-7503
-7935
-8157
-8190
-8215
-8202
-8192
-7901
-7462
-7287
-7530
-7920
-8185
-8185
-8189
-8198
-8164
-7768
-7365
-7249
-7484
-7902
-8084
-8061
-8057
-8116
-8099
-7714
-7268
-7129
-7370
-7825
-8018
-8008
-8080
-8058
-7996
-7577
-7099
-6993
-7257
-7608
-7882
-7908
-7952
-7922
-7852
-7502
-7028
-6838
-7065
-7499
-7712
-7673
-7705
-7712
-7661
-7212
-6768
-6601
-6844
-7194
-7328
-7274
-7268
-7220
-7132
-6784
-6352
-6161
-6356
-6801
-6945
-6862
-6881
-6904
-6860
-6416
-5991
-5822
-6032
-6433
-6640
-6652
-6636
-6621
-6542
-6110
-5694
-5549
-5786
-6243
-6469
-6391
-6421
-6439
-6380
-6073
-5605
-5475
-5762
-6243
-6434
-6452
-6517
-6568
-6584
-6266
-5908
-5829
-6122
-6640
-6964
-7007
-7056
-7057
-7023
-6743
-6363
-6238
-6525
-7028
-7465
-7444
-7440
-7542
-7512
-7120
-6682
-6640
-6859
-7328
-7605
-7610
-7725
-7801
-7851
-7379
-6950
-6873
-7169
-7647
-7908
-7913
-7893
-7900
-7866
-7511
-7104
-7004
-7232
-7561
-7904
-7938
-7873
-7920
-7865
-7518
-7104
-6966
-7212
-7656
-7864
-7860
-7894
-7973
-7928
-7552
-7148
-7021
-7317
-7744
-7958
-8012
-8047
-8042
-7990
-7624
-7224
-7104
-7360
-7720
-8032
-8033
-8080
-8089
-7978
-7605
-7168
-6972
-7264
-7694
-7872
-7904
-7874
-7815
-7883
-7499
-7104
-7008
-7201
-7678
-7919
-7963
-8031
-8050
-7928
-7516
-7110
-6970
-7257
-7604
-7883
-7884
-7888
-7948
-7941
-7550
-7145
-7054
-7299
-7678
-7913
-7954
-7993
-8012
-7948
-7631
-7246
-7152
-7404
-7874
-8088
-8069
-8062
-8097
-8076
-7756
-7392
-7280
-7565
-7992
-8162
-8120
-8192
-8186
-8188
-7858
-7357
-7120
-7312
-7879
-8144
-8182
-8208
-8245
-8175
-7816
-7425
-7259
-7536
-7944
-8153
-8200
-8262
-8300
-8203
-7794
-7407
-7264
-7538
-7931
-8160
-8174
-8192
-8218
-8168
-7764
-7430
-7349
-7599
-8044
-8246
-8279
-8265
-8284
-8252
-7845
-7398
-7236
-7477
-7861
-8100
-8116
-8126
-8172
-8185
-7820
-7420
-7207
-7452
-7954
-8152
-8148
-8070
-8089
-7986
-7638
-7292
-7148
-7369
-7846
-8097
-8042
-8032
-8041
-8006
-7584
-7198
-7128
-7316
-7606
-7872
-7933
-7940
-8012
-8013
-7611
-7194
-7030
-7281
-7704
-7868
-7892
-7901
-7886
-7827
-7466
-7028
-6879
-7087
-7509
-7760
-7772
-7792
-7766
-7738
-7358
-6950
-6751
-6930
-7230
-7489
-7514
-7513
-7557
-7539
-7186
-6744
-6548
-6836
-7390
-7678
-7672
-7654
-7721
-7699
-7349
-6927
-6750
-6992
-7504
-7713
-7728
-7760
-7808
-7801
-7398
-6952
-6769
-7009
-7392
-7736
-7790
-7808
-7801
-7760
-7415
-6998
-6812
-7041
-7497
-7721
-7656
-7673
-7728
-7708
-7310
-6873
-6704
-6952
-7435
-7638
-7673
-7716
-7690
-7618
-7248
-6836
-6675
-6944
-7353
-7632
-7651
-7651
-7722
-7721
-7332
-7020
-6926
-7261
-7756
-8048
-8151
-8084
-8057
-7883
-7238
-6508
-6046
-5924
-6053
-6002
-5674
-5423
-5308
-5080
-4652
-4176
-4171
-4693
-5337
-5952
-6351
-6892
-7390
-7726
-7525
-7003
-6709
-6966
-7470
-7793
-7866
-7879
-7832
-7753
-7353
-6924
-6672
-6796
-7214
-7490
-7422
-7321
-7449
-7492
-7153
-6704
-6552
-6737
-7144
-7472
-7610
-7670
-7658
-7604
-7220
-6793
-6648
-6856
-7275
-7532
-7541
-7576
-7578
-7552
-7168
-6801
-6635
-6844
-7308
-7510
-7520
-7531
-7514
-7488
-7101
-6657
-6501
-6669
-7103
-7320
-7284
-7299
-7313
-7306
-6882
-6416
-6204
-6493
-7012
-7268
-7271
-7248
-7242
-7178
-6751
-6330
-6128
-6306
-6712
-6925
-6911
-6831
-6781
-6773
-6426
-6010
-5852
-6036
-6467
-6704
-6691
-6656
-6628
-6584
-6199
-5732
-5584
-5759
-6147
-6302
-6247
-6232
-6233
-6112
-5740
-5335
-5140
-5320
-5633
-5991
-5982
-5974
-5982
-5878
-5518
-5004
-4750
-4926
-5392
-5679
-5711
-5721
-5749
-5720
-5366
-4940
-4789
-5030
-5456
-5732
-5840
-5868
-5839
-5858
-5544
-5153
-4972
-5166
-5600
-6004
-6157
-6232
-6317
-6377
-6096
-5720
-5550
-5804
-6364
-6685
-6751
-6837
-6907
-6941
-6636
-6219
-6112
-6352
-6832
-7052
-7089
-7101
-7195
-7170
-6848
-6425
-6286
-6531
-6892
-7252
-7352
-7351
-7411
-7395
-7074
-6620
-6450
-6711
-7176
-7376
-7381
-7482
-7439
-7483
-7172
-6711
-6498
-6666
-7142
-7374
-7383
-7424
-7449
-7442
-7088
-6683
-6584
-6808
-7149
-7509
-7575
-7586
-7584
-7577
-7178
-6688
-6534
-6753
-7226
-7580
-7552
-7478
-7520
-7488
-7148
-6748
-6595
-6773
-7198
-7418
-7446
-7472
-7422
-7382
-7072
-6572
-6448
-6783
-7161
-7489
-7523
-7500
-7488
-7424
-6989
-6543
-6385
-6620
-7072
-7396
-7413
-7379
-7445
-7382
-7046
-6628
-6424
-6612
-7046
-7311
-7303
-7293
-7297
-7249
-6891
-6481
-6292
-6506
-6888
-7187
-7208
-7200
-7180
-7141
-6814
-6384
-6304
-6524
-6941
-7242
-7234
-7278
-7282
-7267
-6916
-6438
-6278
-6489
-6887
-7167
-7200
-7212
-7218
-7184
-6831
-6376
-6154
-6368
-6811
-7063
-7107
-7137
-7164
-7141
-6870
-6448
-6249
-6412
-6812
-7068
-7238
-7218
-7160
-7125
-6779
-6361
-6212
-6433
-6789
-7084
-7161
-7220
-7253
-7206
-6912
-6490
-6251
-6424
-6867
-7183
-7214
-7195
-7169
-7092
-6724
-6304
-6095
-6311
-6775
-7084
-7098
-7112
-7176
-7113
-6790
-6391
-6205
-6328
-6669
-7003
-7079
-7035
-7038
-7012
-6731
-6334
-6180
-6378
-6784
-7096
-7128
-7127
-7130
-7113
-6825
-6346
-6112
-6236
-6696
-7014
-7036
-7054
-7082
-6992
-6654
-6167
-5951
-6144
-6471
-6798
-6852
-6866
-6929
-6860
-6596
-6176
-6050
-6243
-6624
-6904
-6955
-6944
-6989
-6944
-6567
-6089
-5964
-6158
-6554
-6832
-6841
-6834
-6776
-6703
-6436
-5760
-5727
-4888
-4706
-5027
-5281
-5461
-5562
-5618
-5404
-5080
-5022
-5296
-5782
-6093
-6216
-6319
-6384
-6421
-6147
-5760
-5647
-5920
-6460
-6744
-6816
-6896
-6929
-6915
-6640
-6232
-6069
-6316
-6669
-6949
-7093
-7170
-7204
-7120
-6829
-6417
-6230
-6441
-6824
-7100
-7164
-7156
-7147
-7119
-6864
-6472
-6343
-6544
-6985
-7209
-7244
-7275
-7274
-7204
-6926
-6524
-6378
-6715
-7199
-7584
-7648
-7626
-7637
-7505
-7056
-6429
-5982
-5833
-5948
-5964
-5627
-5338
-5049
-4776
-4288
-3756
-3508
-3840
-4503
-4974
-5290
-5744
-6320
-6780
-6884
-6649
-6478
-6576
-6905
-7256
-7410
-7541
-7584
-7508
-7112
-6632
-6416
-6569
-6896
-7110
-7183
-7151
-7177
-7099
-6686
-6368
-6185
-6360
-6751
-7062
-7190
-7226
-7248
-7237
-6933
-6512
-6416
-6617
-7010
-7270
-7284
-7256
-7256
-7248
-6900
-6417
-6288
-6512
-6821
-7113
-7200
-7238
-7266
-7199
-6848
-6464
-6256
-6416
-6766
-7069
-7149
-7100
-7082
-7010
-6728
-6350
-6165
-6321
-6752
-6932
-6958
-6959
-6921
-6890
-6572
-6190
-5983
-6097
-6485
-6726
-6688
-6725
-6780
-6722
-6342
-5884
-5653
-5800
-6097
-6320
-6416
-6429
-6434
-6291
-5883
-5478
-5302
-5502
-5905
-6095
-6098
-6032
-5980
-5952
-5615
-5144
-4937
-5100
-5484
-5700
-5744
-5755
-5776
-5743
-5419
-4822
-4660
-4875
-5183
-5456
-5545
-5536
-5541
-5572
-5277
-4832
-4648
-4806
-5201
-5568
-5609
-5552
-5628
-5620
-5369
-5005
-4880
-5072
-5520
-5791
-5888
-6049
-6065
-6104
-5840
-5480
-5370
-5587
-5959
-6296
-6432
-6464
-6526
-6538
-6368
-6037
-5893
-5968
-6398
-6767
-6821
-6816
-6890
-6880
-6561
-6203
-6080
-6267
-6640
-6953
-7068
-7095
-7112
-7085
-6798
-6367
-6162
-6416
-6724
-7006
-7113
-7136
-7081
-7088
-6798
-6400
-6188
-6301
-6742
-6993
-7029
-7088
-7109
-7113
-6833
-6437
-6285
-6395
-6762
-7024
-7096
-7126
-7120
-7076
-6850
-6428
-6218
-6429
-6802
-7077
-7195
-7256
-7120
-7144
-6832
-6425
-6272
-6449
-6878
-7166
-7222
-7310
-7332
-7272
-6948
-6459
-6312
-6479
-6873
-7157
-7209
-7195
-7162
-7156
-6956
-6512
-6316
-6521
-6837
-7232
-7343
-7319
-7293
-7237
-6932
-6520
-6388
-6539
-6928
-7217
-7215
-7270
-7218
-7152
-6832
-6476
-6243
-6384
-6793
-7136
-7178
-7192
-7225
-7185
-6825
-6411
-6240
-6407
-6838
-7093
-7143
-7172
-7144
-7128
-6819
-6464
-6248
-6399
-6847
-7150
-7174
-7216
-7228
-7213
-6962
-6443
-6265
-6474
-6751
-7087
-7182
-7205
-7260
-7200
-6919
-6470
-6234
-6377
-6808
-7092
-7102
-7117
-7198
-7152
-6844
-6392
-6183
-6352
-6782
-7134
-7155
-7144
-7114
-7123
-6768
-6379
-6138
-6320
-6769
-7091
-7076
-7094
-7100
-7162
-6853
-6420
-6253
-6405
-6814
-7073
-7146
-7161
-7132
-7120
-6846
-6384
-6186
-6352
-6784
-7048
-7105
-7107
-7089
-7131
-6858
-6420
-6220
-6398
-6723
-7022
-7111
-7180
-7148
-7130
-6878
-6397
-6144
-6296
-6751
-7016
-7141
-7212
-7244
-7214
-6940
-6584
-6264
-6343
-6806
-7121
-7204
-7213
-7200
-7123
-6868
-6442
-6221
-6312
-6584
-6844
-6957
-6988
-6928
-6909
-6671
-6229
-6036
-6177
-6569
-6956
-7024
-7036
-7025
-7024
-6743
-6292
-6064
-6200
-6575
-6905
-6967
-7009
-7056
-7023
-6736
-6295
-6123
-6306
-6751
-7072
-7184
-7120
-7062
-7028
-6800
-6405
-6168
-6273
-6592
-6896
-6969
-6998
-7052
-7030
-6704
-6332
-6110
-6281
-6645
-6942
-7021
-7000
-7030
-6962
-6677
-6236
-5945
-6155
-6548
-6876
-6896
-6941
-6931
-6876
-6583
-6188
-6101
-6345
-6792
-7121
-7284
-7297
-7273
-7071
-6584
-5924
-5452
-5234
-5287
-5192
-4893
-4620
-4448
-4277
-3950
-3495
-3408
-3799
-4460
-5065
-5532
-6005
-6474
-6841
-6825
-6264
-5897
-6039
-6443
-6777
-6949
-7047
-7041
-6884
-6568
-6089
-5916
-6055
-6342
-6576
-6600
-6596
-6645
-6636
-6366
-5926
-5840
-6016
-6410
-6689
-6739
-6771
-6832
-6761
-6474
-6075
-5889
-6043
-6406
-6644
-6672
-6741
-6800
-6798
-6470
-6127
-5910
-6059
-6359
-6701
-6769
-6872
-6889
-6846
-6569
-6148
-5940
-6073
-6421
-6735
-6823
-6800
-6704
-6665
-6448
-5972
-5708
-5855
-6286
-6576
-6601
-6568
-6548
-6544
-6219
-5791
-5580
-5592
-5849
-6173
-6336
-6386
-6320
-6269
-6001
-5491
-5240
-5365
-5722
-5984
-6005
-6016
-5984
-5935
-5623
-5077
-4864
-4986
-5372
-5709
-5757
-5698
-5662
-5584
-5260
-4862
-4624
-4704
-5015
-5300
-5440
-5479
-5410
-5371
-5108
-4617
-4326
-4431
-4798
-5072
-5128
-5169
-5161
-5132
-4885
-4467
-4266
-4440
-4848
-5125
-5198
-5249
-5258
-5294
-5057
-4702
-4402
-4566
-4984
-5372
-5576
-5678
-5731
-5791
-5574
-5185
-5056
-5227
-5552
-5870
-5991
-6012
-6080
-6116
-5904
-5520
-5298
-5481
-5936
-6245
-6280
-6337
-6422
-6397
-6121
-5752
-5544
-5668
-6078
-6410
-6476
-6523
-6472
-6462
-6168
-5684
-5478
-5757
-6238
-6487
-6588
-6694
-6717
-6688
-6437
-5992
-5820
-5966
-6393
-6689
-6782
-6841
-6844
-6832
-6528
-6026
-5794
-5936
-6320
-6665
-6703
-6718
-6754
-6749
-6471
-6073
-5853
-5968
-6348
-6583
-6594
-6623
-6636
-6624
-6407
-5942
-5671
-5840
-6189
-6466
-6588
-6583
-6564
-6554
-6286
-5856
-5695
-5840
-6192
-6496
-6597
-6640
-6640
-6604
-6288
-5843
-5627
-5785
-6274
-6620
-6632
-6642
-6648
-6628
-6382
-5884
-5589
-5736
-6112
-6512
-6652
-6594
-6573
-6574
-6365
-5872
-5674
-5785
-6220
-6522
-6564
-6592
-6584
-6566
-6328
-5842
-5582
-5732
-6185
-6512
-6535
-6533
-6579
-6512
-6277
-5800
-5563
-5784
-6067
-6405
-6508
-6516
-6594
-6589
-6304
-5881
-5652
-5840
-6178
-6447
-6500
-6583
-6601
-6620
-6326
-5862
-5693
-5808
-6227
-6504
-6531
-6504
-6524
-6560
-6273
-5840
-5616
-5748
-6073
-6404
-6520
-6544
-6507
-6442
-6204
-5832
-5621
-5768
-6136
-6452
-6528
-6540
-6553
-6526
-6296
-5868
-5584
-5724
-6152
-6483
-6565
-6536
-6571
-6524
-6237
-5833
-5584
-5670
-6006
-6359
-6464
-6547
-6588
-6587
-6329
-5860
-5637
-5772
-6135
-6421
-6518
-6572
-6574
-6593
-6272
-5784
-5577
-5703
-6099
-6430
-6531
-6529
-6544
-6562
-6262
-5800
-5536
-5649
-6080
-6400
-6492
-6500
-6473
-6440
-6189
-5763
-5536
-5668
-6047
-6303
-6323
-6301
-6286
-6282
-6086
-5698
-5471
-5587
-5924
-6223
-6248
-6272
-6280
-6241
-5945
-5487
-5257
-5380
-5757
-6122
-6246
-6257
-6252
-6272
-6008
-5696
-5448
-5430
-5836
-6176
-6245
-6260
-6337
-6352
-6151
-5776
-5501
-5617
-5992
-6285
-6388
-6421
-6450
-6460
-6207
-5715
-5446
-5520
-5957
-6297
-6416
-6456
-6420
-6386
-6105
-5640
-5470
-5610
-5996
-6290
-6379
-6390
-6328
-6345
-6132
-5708
-5429
-5541
-5869
-6172
-6312
-6364
-6339
-6298
-6104
-5738
-5493
-5664
-6092
-6474
-6653
-6760
-6829
-6826
-6603
-6108
-5624
-5426
-5476
-5532
-5216
-4864
-4592
-4304
-3847
-3272
-2863
-2928
-3202
-3760
-4156
-4377
-4699
-5260
-5564
-5645
-5626
-5744
-6056
-6400
-6461
-6508
-6658
-6678
-6392
-5940
-5642
-5708
-5968
-6272
-6348
-6315
-6279
-6269
-6037
-5617
-5369
-5530
-5950
-6286
-6432
-6355
-6464
-6424
-6146
-5739
-5526
-5632
-5941
-6291
-6414
-6432
-6444
-6458
-6216
-5728
-5456
-5561
-5932
-6240
-6324
-6361
-6345
-6408
-6188
-5701
-5429
-5512
-5825
-6236
-6373
-6396
-6368
-6350
-6046
-5608
-5386
-5504
-5855
-6224
-6298
-6318
-6229
-6180
-6033
-5513
-5224
-5380
-5584
-5944
-6057
-6024
-5984
-5996
-5753
-5355
-5062
-5190
-5520
-5849
-5896
-5844
-5820
-5767
-5472
-5021
-4741
-4847
-5201
-5520
-5567
-5553
-5512
-5457
-5252
-4719
-4304
-4368
-4785
-5140
-5135
-5183
-5253
-5168
-4878
-4406
-4032
-4105
-4488
-4895
-4915
-4880
-4905
-4892
-4625
-4225
-3985
-4110
-4480
-4844
-4928
-4912
-4896
-4922
-4736
-4296
-4147
-4299
-4699
-5061
-5190
-5280
-5360
-5363
-5192
-4813
-4584
-4722
-5102
-5512
-5628
-5708
-5749
-5792
-5593
-5202
-4988
-5168
-5572
-5927
-6003
-6048
-6032
-6044
-5855
-5456
-5285
-5416
-5803
-6141
-6312
-6266
-6254
-6309
-6089
-5672
-5410
-5460
-5914
-6240
-6288
-6292
-6352
-6395
-6144
-5638
-5391
-5482
-5921
-6263
-6348
-6314
-6297
-6315
-6130
-5679
-5436
-5534
-5900
-6208
-6328
-6283
-6344
-6391
-6080
-5624
-5410
-5509
-5937
-6296
-6373
-6363
-6340
-6363
-6176
-5767
-5488
-5531
-5900
-6214
-6299
-6393
-6415
-6403
-6203
-5729
-5492
-5577
-5879
-6164
-6356
-6455
-6400
-6323
-6165
-5708
-5456
-5485
-5860
-6234
-6340
-6383
-6364
-6320
-6074
-5691
-5453
-5524
-5964
-6252
-6332
-6312
-6348
-6417
-6131
-5719
-5435
-5524
-5870
-6168
-6324
-6332
-6337
-6300
-6096
-5747
-5465
-5513
-5840
-6176
-6274
-6320
-6280
-6248
-6080
-5640
-5389
-5472
-5920
-6254
-6354
-6373
-6321
-6300
-6055
-5684
-5440
-5415
-5721
-6086
-6255
-6320
-6352
-6328
-6166
-5744
-5428
-5563
-5932
-6279
-6354
-6428
-6401
-6343
-6144
-5704
-5459
-5491
-5911
-6256
-6348
-6397
-6350
-6337
-6080
-5612
-5366
-5460
-5862
-6276
-6341
-6341
-6303
-6167
-5917
-5543
-5353
-5504
-5861
-6246
-6313
-6318
-6360
-6363
-6181
-5711
-5456
-5584
-5828
-6176
-6297
-6308
-6297
-6288
-6089
-5688
-5376
-5407
-5762
-6152
-6264
-6289
-6298
-6301
-6112
-5680
-5357
-5449
-5768
-6116
-6190
-6215
-6239
-6201
-5964
-5552
-5354
-5420
-5831
-6192
-6247
-6206
-6213
-6178
-5924
-5504
-5273
-5416
-5834
-6094
-6122
-6148
-6216
-6256
-6024
-5528
-5248
-5288
-5728
-6091
-6105
-6148
-6110
-6080
-5856
-5381
-5168
-5241
-5520
-5792
-5926
-6004
-6042
-6104
-5928
-5512
-5311
-5434
-5825
-6143
-6156
-6128
-6168
-6160
-5975
-5476
-5216
-5360
-5723
-6139
-6235
-6216
-6229
-6313
-6169
-5696
-5420
-5488
-5830
-6225
-6395
-6411
-6424
-6404
-6163
-5686
-5400
-5430
-5805
-6187
-6330
-6385
-6384
-6301
-6097
-5645
-5344
-5477
-5870
-6235
-6335
-6373
-6363
-6342
-6110
-5660
-5435
-5561
-5843
-6120
-6270
-6351
-6423
-6457
-6319
-5943
-5696
-5798
-6164
-6435
-6391
-6272
-6096
-5805
-5312
-4457
-3866
-3608
-3708
-3820
-3785
-3691
-3551
-3596
-3639
-3427
-3444
-3824
-4531
-5392
-6007
-6286
-6416
-6371
-6128
-5694
-5447
-5537
-6020
-6400
-6424
-6366
-6297
-6300
-6060
-5568
-5180
-5169
-5518
-5897
-5935
-5879
-5947
-6044
-5842
-5414
-5190
-5279
-5600
-5925
-6088
-6101
-6067
-6067
-5888
-5408
-5068
-5121
-5497
-5982
-6023
-6030
-6010
-5994
-5731
-5344
-5117
-5153
-5472
-5812
-5917
-6008
-5992
-5977
-5803
-5342
-5025
-5132
-5469
-5724
-5856
-5909
-5944
-5920
-5759
-5255
-4900
-4984
-5337
-5669
-5728
-5774
-5711
-5660
-5445
-4976
-4636
-4668
-5084
-5391
-5453
-5510
-5529
-5412
-5184
-4715
-4407
-4494
-4822
-5158
-5217
-5168
-5141
-5116
-4861
-4349
-4036
-4096
-4450
-4759
-4762
-4769
-4834
-4809
-4569
-4162
-3827
-3826
-4024
-4439
-4570
-4588
-4550
-4508
-4345
-3920
-3645
-3632
-3951
-4291
-4390
-4428
-4412
-4426
-4257
-3869
-3626
-3655
-3993
-4396
-4496
-4556
-4652
-4677
-4485
-4093
-3880
-4058
-4423
-4864
-5085
-5106
-5144
-5227
-5096
-4672
-4415
-4544
-4898
-5287
-5440
-5475
-5587
-5563
-5409
-5041
-4768
-4869
-5258
-5630
-5766
-5824
-5903
-5878
-5658
-5264
-5008
-5081
-5371
-5680
-5848
-5871
-5858
-5872
-5696
-5264
-5014
-5113
-5452
-5836
-5984
-5990
-5980
-6080
-5959
-5500
-5232
-5292
-5537
-5882
-5986
-6040
-6064
-6062
-5909
-5470
-5165
-5184
-5505
-5841
-5988
-6078
-6044
-6043
-5858
-5429
-5109
-5192
-5540
-5960
-6074
-6081
-6112
-6032
-5840
-5442
-5114
-5196
-5527
-5880
-5977
-5953
-5927
-5884
-5808
-5426
-5111
-5209
-5536
-5895
-6079
-6140
-6082
-6108
-5919
-5504
-5197
-5229
-5638
-6014
-6144
-6212
-6192
-6136
-5933
-5504
-5180
-5291
-5651
-6061
-6156
-6180
-6230
-6177
-6016
-5564
-5196
-5226
-5620
-5913
-6096
-6138
-6118
-6078
-5860
-5448
-5161
-5152
-5501
-5890
-6019
-6104
-6128
-6139
-6005
-5545
-5225
-5296
-5592
-5904
-6044
-6090
-6072
-6035
-5902
-5474
-5190
-5221
-5572
-5936
-6100
-6158
-6207
-6128
-5933
-5511
-5222
-5273
-5613
-5962
-6111
-6112
-6090
-6045
-5881
-5496
-5196
-5268
-5604
-5824
-5984
-6041
-6020
-6005
-5881
-5493
-5160
-5240
-5584
-5948
-6127
-6145
-6112
-6118
-5892
-5443
-5129
-5177
-5548
-5954
-6057
-6104
-6108
-6076
-5972
-5453
-5168
-5219
-5534
-5872
-5994
-6022
-6029
-6020
-5855
-5499
-5184
-5193
-5509
-5870
-6068
-6113
-6113
-6053
-5926
-5520
-5020
-5092
-5486
-5902
-6000
-6032
-6020
-6064
-5882
-5424
-5135
-5188
-5465
-5789
-6000
-5996
-6012
-6034
-5845
-5404
-5176
-5256
-5501
-5825
-5936
-5987
-5932
-5949
-5681
-5272
-4984
-5024
-5340
-5704
-5761
-5819
-5924
-5937
-5758
-5376
-5080
-5067
-5279
-5593
-5833
-5905
-5964
-5916
-5748
-5243
-4992
-5045
-5360
-5704
-5956
-6036
-6052
-6096
-5877
-5440
-5136
-5162
-5500
-5899
-5975
-5977
-5982
-5936
-5828
-5400
-5039
-5048
-5421
-5776
-5975
-5977
-6044
-6064
-5861
-5388
-5049
-5100
-5344
-5736
-5945
-5888
-5912
-6022
-5845
-5429
-5136
-5145
-5446
-5894
-6067
-6195
-6288
-6333
-6262
-5846
-5550
-5484
-5584
-5768
-5706
-5466
-5160
-4768
-4256
-3532
-2928
-2750
-2926
-3184
-3260
-3373
-3657
-3902
-3977
-3913
-4068
-4612
-5348
-5914
-5994
-5982
-5979
-6043
-5904
-5584
-5252
-5270
-5510
-5788
-5988
-5972
-5960
-6004
-5760
-5307
-4969
-4939
-5309
-5684
-5836
-5899
-5918
-5901
-5756
-5312
-4988
-5093
-5382
-5719
-5872
-5904
-5982
-5960
-5796
-5406
-5040
-5035
-5299
-5630
-5845
-5896
-5897
-5892
-5716
-5244
-4968
-4970
-5276
-5648
-5824
-5841
-5796
-5760
-5561
-5240
-4924
-4990
-5287
-5594
-5788
-5793
-5788
-5785
-5614
-5136
-4830
-4844
-5136
-5428
-5640
-5654
-5576
-5551
-5433
-4909
-4574
-4587
-4827
-5189
-5348
-5385
-5352
-5318
-5147
-4685
-4376
-4288
-4576
-4864
-5045
-5097
-5071
-5096
-4960
-4424
-4032
-3999
-4268
-4547
-4623
-4640
-4603
-4588
-4446
-3969
-3644
-3664
-3964
-4351
-4455
-4444
-4416
-4397
-4266
-3806
-3463
-3483
-3695
-3944
-4157
-4230
-4235
-4352
-4230
-3844
-3550
-3517
-3882
-4308
-4504
-4614
-4652
-4698
-4589
-4176
-3910
-4014
-4384
-4919
-5146
-5177
-5247
-5216
-5080
-4702
-4401
-4429
-4875
-5248
-5564
-5600
-5610
-5548
-5489
-5148
-4881
-4944
-5233
-5590
-5715
-5733
-5832
-5817
-5674
-5276
-5001
-5020
-5208
-5612
-5802
-5784
-5853
-5852
-5776
-5349
-4986
-5000
-5289
-5616
-5789
-5852
-5873
-5932
-5817
-5401
-5066
-5027
-5324
-5728
-5908
-5908
-5981
-6005
-5792
-5320
-5014
-5004
-5315
-5756
-5964
-5969
-5972
-6009
-5838
-5372
-5065
-5019
-5354
-5700
-5841
-5940
-5983
-5998
-5888
-5462
-5126
-5119
-5504
-5852
-6009
-6060
-6065
-6058
-5888
-5418
-5094
-5127
-5398
-5888
-6018
-6119
-6125
-6122
-5977
-5488
-5238
-5242
-5525
-5953
-6118
-6118
-6068
-6044
-5981
-5594
-5232
-5240
-5577
-5950
-6081
-6096
-6154
-6106
-6041
-5623
-5232
-5236
-5544
-5929
-6156
-6135
-6054
-6112
-5938
-5478
-5119
-5160
-5451
-5814
-5965
-6077
-6115
-6081
-5936
-5513
-5256
-5272
-5579
-5987
-6140
-6171
-6212
-6178
-6019
-5614
-5308
-5303
-5588
-5920
-6103
-6124
-6057
-6076
-5978
-5541
-5211
-5211
-5500
-5895
-6057
-6093
-6121
-6133
-6015
-5542
-5227
-5204
-5357
-5872
-6025
-6026
-6052
-6008
-5929
-5504
-5237
-5240
-5529
-5900
-6104
-6066
-6124
-6201
-6072
-5680
-5326
-5322
-5592
-5974
-6128
-6178
-6191
-6135
-5979
-5605
-5297
-5250
-5600
-6000
-6103
-6164
-6141
-6118
-5987
-5585
-5276
-5307
-5468
-5712
-6061
-6076
-6072
-6089
-6064
-5657
-5312
-5271
-5604
-6009
-6137
-6140
-6149
-6172
-6093
-5698
-5376
-5264
-5550
-5963
-6136
-6163
-6160
-6111
-6017
-5662
-5312
-5248
-5440
-5810
-6048
-6100
-6142
-6101
-6040
-5616
-5251
-5192
-5495
-5907
-5980
-5974
-5933
-5931
-5856
-5470
-5120
-5174
-5535
-5910
-6029
-6013
-5977
-5832
-5744
-5385
-5080
-5076
-5333
-5716
-5912
-5982
-6008
-6037
-5874
-5505
-5199
-5180
-5428
-5890
-6011
-6001
-6043
-6061
-5897
-5529
-5197
-5218
-5447
-5868
-6024
-6080
-6079
-6105
-6025
-5606
-5198
-5192
-5507
-5848
-5985
-6030
-6042
-6057
-5942
-5520
-5220
-5190
-5515
-5962
-6089
-6064
-6056
-6105
-5956
-5583
-5280
-5334
-5705
-6192
-6425
-6457
-6522
-6493
-6288
-5752
-5162
-4906
-4902
-4963
-4874
-4508
-4094
-3793
-3476
-2951
-2438
-2335
-2701
-3386
-3849
-4137
-4546
-5035
-5472
-5548
-5308
-5223
-5467
-5802
-6016
-6033
-6152
-6233
-6152
-5768
-5358
-5300
-5529
-5880
-5974
-5899
-5900
-5901
-5788
-5380
-5004
-4980
-5270
-5670
-5917
-5971
-5984
-5995
-5872
-5514
-5096
-5024
-5327
-5675
-5890
-5926
-5930
-5905
-5782
-5372
-5016
-4982
-5286
-5707
-5913
-5951
-5885
-5908
-5796
-5378
-5066
-4992
-5241
-5640
-5802
-5805
-5914
-5968
-5832
-5440
-5077
-4993
-5265
-5578
-5745
-5810
-5808
-5748
-5566
-5157
-4792
-4720
-4940
-5391
-5598
-5598
-5568
-5536
-5446
-5004
-4537
-4521
-4767
-5124
-5350
-5280
-5307
-5305
-5168
-4676
-4340
-4202
-4432
-4704
-4927
-4944
-4933
-4902
-4865
-4464
-4080
-3946
-4188
-4636
-4790
-4770
-4697
-4654
-4560
-4134
-3756
-3725
-3983
-4367
-4528
-4548
-4555
-4511
-4367
-4010
-3616
-3536
-3804
-4128
-4425
-4504
-4584
-4444
-4540
-4167
-3811
-3755
-4104
-4460
-4670
-4793
-4913
-4968
-4956
-4576
-4233
-4204
-4527
-4916
-5200
-5312
-5364
-5408
-5303
-4928
-4615
-4608
-4936
-5311
-5596
-5625
-5626
-5609
-5546
-5192
-4861
-4808
-5132
-5644
-5796
-5884
-5872
-5834
-5768
-5388
-5007
-4953
-5238
-5665
-5812
-5812
-5844
-5856
-5737
-5361
-4947
-4896
-5180
-5604
-5835
-5884
-5886
-5904
-5758
-5392
-4970
-4875
-5145
-5597
-5798
-5820
-5899
-5897
-5774
-5328
-4950
-4868
-5124
-5545
-5736
-5807
-5893
-5905
-5772
-5340
-5025
-5040
-5225
-5624
-5804
-5806
-5780
-5800
-5680
-5272
-4859
-4790
-5064
-5436
-5596
-5621
-5578
-5631
-5532
-5088
-4728
-4656
-4944
-5360
-5612
-5613
-5581
-5636
-5584
-5132
-4784
-4752
-5021
-5424
-5636
-5634
-5663
-5625
-5540
-5204
-4924
-4836
-5088
-5559
-5734
-5735
-5772
-5832
-5717
-5286
-4928
-4856
-5127
-5427
-5698
-5705
-5700
-5677
-5638
-5268
-4896
-4849
-5100
-5482
-5696
-5721
-5728
-5759
-5631
-5272
-4976
-4850
-5109
-5530
-5661
-5658
-5708
-5769
-5676
-5322
-4953
-4920
-5142
-5460
-5850
-5849
-5816
-5784
-5728
-5360
-5010
-4982
-5259
-5695
-5844
-5894
-5952
-5962
-5868
-5482
-5140
-5068
-5360
-5760
-5928
-5978
-6026
-6081
-6020
-5613
-5179
-5134
-5336
-5629
-5912
-5961
-5958
-5960
-5880
-5540
-5179
-5104
-5360
-5776
-5981
-5966
-5985
-6054
-5883
-5411
-5104
-4992
-5215
-5664
-5912
-5866
-5874
-5917
-5840
-5440
-5088
-5022
-5261
-5564
-5821
-5827
-5888
-5927
-5819
-5424
-5043
-4986
-5236
-5737
-5952
-5964
-5968
-5936
-5820
-5443
-5067
-5012
-5242
-5660
-5844
-5845
-5834
-5833
-5705
-5400
-4953
-4810
-5083
-5420
-5584
-5624
-5696
-5726
-5680
-5310
-4953
-4848
-5059
-5475
-5684
-5765
-5753
-5657
-5621
-5245
-4929
-4872
-5191
-5539
-5732
-5811
-5825
-5806
-5760
-5366
-5053
-4994
-5276
-5664
-5784
-5865
-5925
-5920
-5880
-5514
-5128
-4972
-5210
-5660
-5788
-5822
-5846
-5887
-5821
-5423
-5007
-4848
-5121
-5551
-5787
-5898
-5824
-5752
-5680
-5272
-4971
-4965
-5212
-5632
-5792
-5904
-5963
-6027
-6029
-5760
-5458
-5419
-5654
-6044
-6156
-6026
-5792
-5548
-5184
-4481
-3821
-3419
-3318
-3384
-3486
-3401
-3340
-3354
-3416
-3336
-3164
-3414
-4052
-5004
-5672
-5980
-6096
-5931
-5808
-5403
-5100
-4996
-5457
-5988
-6102
-6050
-5968
-5928
-5805
-5407
-4960
-4832
-4993
-5372
-5673
-5769
-5764
-5806
-5755
-5384
-4986
-4886
-5128
-5552
-5765
-5819
-5868
-5868
-5752
-5344
-5041
-4968
-5142
-5440
-5664
-5716
-5718
-5737
-5712
-5368
-4998
-4889
-5140
-5549
-5708
-5772
-5744
-5668
-5648
-5328
-4966
-4856
-5069
-5368
-5632
-5679
-5672
-5663
-5645
-5257
-4876
-4784
-5024
-5382
-5648
-5672
-5660
-5616
-5551
-5197
-4750
-4591
-4818
-5160
-5353
-5370
-5385
-5355
-5305
-4897
-4532
-4388
-4689
-5072
-5198
-5262
-5243
-5152
-5056
-4621
-4279
-4165
-4367
-4664
-4836
-4788
-4764
-4704
-4664
-4280
-3828
-3655
-3864
-4302
-4498
-4506
-4544
-4520
-4390
-4059
-3664
-3539
-3802
-4159
-4333
-4275
-4316
-4364
-4312
-3951
-3569
-3418
-3655
-4112
-4458
-4512
-4572
-4668
-4643
-4301
-3918
-3805
-4041
-4572
-4876
-5011
-5000
-5017
-5020
-4705
-4393
-4360
-4612
-5002
-5213
-5312
-5348
-5342
-5360
-5074
-4714
-4635
-4862
-5342
-5597
-5630
-5699
-5672
-5571
-5185
-4860
-4804
-5024
-5392
-5681
-5768
-5745
-5752
-5768
-5392
-4987
-4927
-5238
-5621
-5814
-5888
-5913
-5868
-5785
-5416
-5001
-4947
-5156
-5530
-5784
-5699
-5718
-5808
-5692
-5336
-5036
-4896
-5136
-5589
-5808
-5866
-5854
-5865
-5790
-5456
-5070
-4892
-5129
-5641
-5820
-5848
-5814
-5745
-5686
-5321
-4955
-4888
-5128
-5508
-5790
-5849
-5814
-5853
-5799
-5427
-4977
-4888
-5172
-5568
-5750
-5802
-5847
-5857
-5896
-5505
-4997
-4865
-5086
-5534
-5745
-5760
-5848
-5898
-5824
-5420
-4966
-4848
-5031
-5376
-5732
-5856
-5853
-5874
-5893
-5512
-5083
-4910
-5142
-5536
-5803
-5848
-5901
-5904
-5856
-5485
-5056
-4953
-5201
-5587
-5814
-5820
-5902
-5948
-5791
-5392
-5052
-4969
-5110
-5439
-5740
-5760
-5813
-5840
-5833
-5483
-5066
-4956
-5140
-5534
-5781
-5868
-5819
-5833
-5830
-5463
-5150
-4986
-5136
-5544
-5804
-5876
-5861
-5860
-5818
-5448
-5115
-4873
-5064
-5436
-5664
-5770
-5825
-5780
-5718
-5402
-5006
-4953
-5132
-5550
-5792
-5825
-5826
-5820
-5692
-5364
-4928
-4861
-5019
-5452
-5704
-5768
-5778
-5760
-5727
-5403
-4921
-4740
-4965
-5343
-5642
-5728
-5714
-5692
-5674
-5328
-4925
-4774
-5066
-5496
-5648
-5679
-5680
-5696
-5657
-5273
-4825
-4744
-4968
-5344
-5600
-5701
-5737
-5710
-5634
-5254
-4921
-4812
-5048
-5409
-5648
-5741
-5688
-5716
-5588
-5207
-4837
-4709
-4915
-5371
-5650
-5657
-5649
-5622
-5529
-5207
-4795
-4584
-4864
-5312
-5536
-5641
-5671
-5707
-5692
-5327
-4885
-4848
-5008
-5386
-5540
-5529
-5520
-5508
-5469
-5147
-4730
-4637
-4850
-5272
-5472
-5568
-5616
-5633
-5655
-5256
-4841
-4716
-4823
-5269
-5516
-5615
-5658
-5627
-5567
-5205
-4863
-4712
-4930
-5363
-5648
-5678
-5688
-5728
-5648
-5296
-4875
-4728
-5055
-5472
-5664
-5737
-5704
-5693
-5626
-5265
-4890
-4728
-4940
-5200
-5533
-5641
-5672
-5664
-5624
-5312
-4891
-4744
-4986
-5423
-5665
-5668
-5664
-5708
-5624
-5280
-4889
-4752
-5021
-5450
-5744
-5902
-6008
-6033
-6052
-5695
-5212
-4942
-4986
-5081
-5061
-4900
-4576
-4200
-3874
-3221
-2501
-2148
-2280
-2500
-2688
-2900
-3256
-3419
-3696
-3904
-3994
-4360
-4806
-5248
-5487
-5604
-5614
-5584
-5671
-5417
-4985
-4696
-4820
-5099
-5430
-5433
-5409
-5393
-5263
-4886
-4521
-4370
-4671
-5104
-5344
-5427
-5496
-5534
-5451
-5120
-4707
-4504
-4726
-5216
-5461
-5431
-5423
-5465
-5387
-5092
-4640
-4444
-4644
-5010
-5345
-5405
-5396
-5388
-5389
-5075
-4685
-4568
-4795
-5231
-5411
-5441
-5392
-5447
-5380
-5052
-4669
-4535
-4702
-5078
-5367
-5394
-5376
-5318
-5323
-4976
-4500
-4379
-4494
-4828
-5004
-5011
-5060
-5097
-5072
-4738
-4329
-4160
-4368
-4680
-4894
-4929
-4847
-4825
-4720
-4340
-3921
-3793
-3977
-4361
-4632
-4561
-4551
-4497
-4380
-4009
-3573
-3346
-3504
-3904
-4112
-4094
-4112
-4126
-4048
-3696
-3181
-3000
-3163
-3561
-3776
-3749
-3775
-3737
-3753
-3468
-3046
-2868
-3066
-3386
-3640
-3751
-3824
-3853
-3774
-3552
-3114
-2940
-3172
-3608
-3911
-4009
-4064
-4097
-4127
-3907
-3563
-3464
-3664
-4080
-4363
-4537
-4584
-4680
-4666
-4374
-3969
-3852
-4143
-4552
-4870
-4959
-4983
-5097
-5076
-4781
-4369
-4167
-4396
-4835
-5130
-5161
-5274
-5291
-5257
-4938
-4545
-4356
-4562
-4988
-5247
-5328
-5416
-5384
-5344
-5056
-4621
-4496
-4675
-4950
-5248
-5379
-5410
-5385
-5334
-5052
-4617
-4436
-4649
-4992
-5324
-5389
-5352
-5381
-5342
-5070
-4681
-4524
-4782
-5136
-5360
-5391
-5434
-5429
-5444
-5117
-4657
-4524
-4712
-4992
-5348
-5483
-5528
-5541
-5408
-5130
-4667
-4462
-4662
-5102
-5380
-5420
-5461
-5432
-5400
-5098
-4728
-4510
-4684
-5120
-5385
-5404
-5401
-5398
-5403
-5033
-4651
-4496
-4668
-5046
-5338
-5524
-5533
-5482
-5482
-5144
-4736
-4520
-4668
-5096
-5392
-5435
-5495
-5473
-5456
-5147
-4758
-4586
-4786
-5138
-5404
-5490
-5512
-5547
-5512
-5229
-4840
-4645
-4832
-5216
-5472
-5532
-5582
-5581
-5582
-5310
-4834
-4668
-4816
-5188
-5449
-5538
-5576
-5578
-5604
-5328
-4886
-4775
-4860
-5216
-5548
-5571
-5605
-5659
-5653
-5308
-4895
-4747
-4928
-5294
-5529
-5593
-5609
-5684
-5588
-5240
-4881
-4710
-4870
-5269
-5532
-5456
-5502
-5582
-5618
-5276
-4884
-4716
-4872
-5223
-5510
-5599
-5578
-5539
-5530
-5252
-4884
-4661
-4860
-5247
-5504
-5633
-5676
-5674
-5627
-5342
-4908
-4672
-4892
-5206
-5481
-5551
-5558
-5548
-5484
-5228
-4832
-4688
-4848
-5184
-5453
-5536
-5523
-5534
-5568
-5297
-4784
-4595
-4716
-5096
-5366
-5444
-5494
-5520
-5466
-5226
-4830
-4615
-4773
-5164
-5435
-5514
-5491
-5484
-5462
-5120
-4740
-4620
-4743
-5001
-5392
-5539
-5504
-5533
-5486
-5196
-4765
-4592
-4769
-5148
-5382
-5508
-5458
-5476
-5456
-5208
-4792
-4574
-4776
-5188
-5416
-5457
-5492
-5532
-5480
-5178
-4766
-4548
-4667
-4986
-5214
-5258
-5272
-5316
-5268
-5000
-4548
-4424
-4588
-5050
-5351
-5453
-5517
-5512
-5484
-5162
-4742
-4559
-4711
-5068
-5316
-5400
-5388
-5378
-5375
-5157
-4800
-4649
-4766
-5100
-5429
-5590
-5570
-5616
-5641
-5352
-4876
-4711
-4835
-5215
-5496
-5572
-5560
-5525
-5482
-5205
-4768
-4568
-4767
-5152
-5397
-5541
-5561
-5565
-5577
-5226
-4729
-4572
-4840
-5209
-5568
-5637
-5648
-5648
-5612
-5344
-4887
-4666
-4920
-5360
-5705
-5885
-5945
-6004
-5980
-5633
-5082
-4732
-4772
-4936
-4842
-4659
-4373
-3993
-3648
-3149
-2532
-2117
-2125
-2470
-2864
-3222
-3544
-3843
-4175
-4329
-4448
-4632
-4984
-5306
-5504
-5489
-5538
-5673
-5706
-5472
-5052
-4696
-4863
-5232
-5514
-5521
-5520
-5513
-5381
-5047
-4621
-4428
-4550
-4922
-5321
-5420
-5416
-5480
-5448
-5216
-4817
-4596
-4768
-5131
-5445
-5526
-5590
-5560
-5470
-5251
-4813
-4641
-4751
-5058
-5346
-5463
-5468
-5476
-5448
-5136
-4727
-4501
-4640
-5039
-5304
-5408
-5472
-5498
-5540
-5214
-4740
-4591
-4685
-5038
-5286
-5357
-5360
-5339
-5347
-5081
-4679
-4328
-4409
-4756
-5092
-5156
-5178
-5200
-5144
-4808
-4384
-4096
-4145
-4516
-4800
-4912
-4932
-4908
-4859
-4512
-4060
-3834
-4032
-4349
-4601
-4671
-4591
-4528
-4422
-4157
-3737
-3450
-3640
-3988
-4290
-4356
-4457
-4442
-4396
-4086
-3552
-3327
-3494
-3822
-4141
-4154
-4152
-4170
-4121
-3779
-3358
-3166
-3251
-3736
-4040
-4099
-4125
-4108
-4064
-3852
-3425
-3240
-3450
-3792
-4188
-4323
-4313
-4381
-4378
-4153
-3839
-3705
-3930
-4329
-4637
-4760
-4838
-4844
-4873
-4738
-4357
-4171
-4364
-4768
-5080
-5176
-5184
-5211
-5235
-4981
-4605
-4400
-4528
-4929
-5254
-5290
-5376
-5372
-5338
-5181
-4761
-4526
-4651
-5126
-5402
-5448
-5414
-5456
-5451
-5240
-4756
-4537
-4690
-5125
-5445
-5531
-5496
-5546
-5548
-5291
-4864
-4640
-4782
-5068
-5401
-5497
-5501
-5480
-5504
-5270
-4848
-4624
-4764
-5179
-5477
-5483
-5548
-5584
-5529
-5234
-4805
-4590
-4744
-5130
-5430
-5468
-5463
-5520
-5512
-5233
-4832
-4629
-4745
-5086
-5419
-5549
-5614
-5621
-5612
-5389
-5006
-4752
-4864
-5263
-5519
-5569
-5594
-5575
-5594
-5361
-4944
-4712
-4856
-5280
-5578
-5663
-5691
-5705
-5656
-5425
-4961
-4700
-4752
-5244
-5600
-5662
-5702
-5643
-5634
-5356
-4858
-4706
-4832
-5230
-5596
-5661
-5674
-5696
-5621
-5365
-4967
-4768
-4870
-5184
-5484
-5589
-5625
-5633
-5672
-5428
-4938
-4685
-4870
-5286
-5495
-5568
-5600
-5533
-5512
-5321
-4879
-4624
-4784
-5224
-5552
-5620
-5632
-5584
-5621
-5376
-4977
-4743
-4837
-5177
-5464
-5600
-5635
-5624
-5605
-5385
-4943
-4763
-4908
-5248
-5566
-5609
-5600
-5565
-5551
-5328
-4935
-4736
-4797
-5144
-5500
-5556
-5550
-5599
-5596
-5338
-4816
-4568
-4752
-5073
-5404
-5638
-5633
-5632
-5560
-5367
-4892
-4625
-4796
-5207
-5574
-5546
-5609
-5585
-5629
-5357
-4905
-4722
-4819
-5202
-5574
-5636
-5672
-5664
-5621
-5408
-5012
-4736
-4812
-5149
-5454
-5568
-5604
-5627
-5644
-5397
-4951
-4682
-4842
-5235
-5493
-5526
-5608
-5634
-5625
-5351
-4952
-4692
-4796
-5175
-5528
-5593
-5568
-5603
-5583
-5363
-4903
-4511
-4624
-5017
-5328
-5384
-5455
-5524
-5565
-5309
-4856
-4533
-4696
-5026
-5335
-5383
-5422
-5362
-5310
-5088
-4733
-4542
-4634
-4976
-5306
-5380
-5374
-5406
-5456
-5164
-4678
-4460
-4463
-4797
-5167
-5311
-5312
-5336
-5305
-5120
-4712
-4486
-4640
-5006
-5321
-5340
-5387
-5434
-5450
-5161
-4750
-4476
-4564
-4894
-5278
-5360
-5372
-5452
-5447
-5204
-4785
-4541
-4554
-4900
-5231
-5314
-5344
-5300
-5352
-5120
-4655
-4433
-4552
-4929
-5256
-5356
-5344
-5324
-5444
-5194
-4703
-4503
-4658
-4954
-5285
-5536
-5631
-5674
-5728
-5542
-5084
-4744
-4697
-4816
-4885
-4591
-4302
-3999
-3664
-3232
-2517
-2076
-2080
-2285
-2508
-2644
-2889
-3157
-3393
-3582
-3600
-3887
-4396
-4864
-5122
-5213
-5227
-5201
-5243
-5221
-4816
-4471
-4557
-4874
-5232
-5250
-5168
-5118
-5072
-4880
-4443
-4156
-4262
-4720
-5056
-5138
-5190
-5221
-5213
-4999
-4493
-4242
-4393
-4630
-4970
-5132
-5269
-5264
-5164
-4980
-4544
-4261
-4318
-4729
-5096
-5244
-5236
-5258
-5208
-4927
-4488
-4220
-4378
-4682
-4973
-5089
-5101
-5187
-5146
-4882
-4486
-4282
-4364
-4652
-4940
-5152
-5072
-5088
-5066
-4842
-4406
-4153
-4201
-4505
-4836
-4832
-4842
-4863
-4852
-4621
-4191
-3856
-3893
-4252
-4587
-4611
-4636
-4608
-4582
-4340
-3868
-3576
-3688
-3974
-4279
-4407
-4421
-4362
-4353
-4044
-3593
-3318
-3416
-3680
-4028
-4096
-4079
-4057
-4012
-3796
-3316
-2976
-3009
-3378
-3679
-3774
-3812
-3829
-3851
-3664
-3216
-2960
-2989
-3297
-3581
-3743
-3752
-3840
-3823
-3655
-3247
-2985
-3167
-3537
-3904
-4068
-4120
-4124
-4068
-3910
-3578
-3366
-3513
-3902
-4323
-4442
-4457
-4540
-4591
-4387
-4005
-3776
-3884
-4248
-4568
-4709
-4768
-4877
-4848
-4640
-4285
-4065
-4208
-4544
-4893
-4990
-5031
-5040
-4997
-4838
-4430
-4156
-4260
-4544
-4868
-5084
-5146
-5128
-5088
-4915
-4478
-4251
-4303
-4705
-5032
-5109
-5109
-5167
-5149
-4964
-4553
-4302
-4288
-4703
-5036
-5065
-5112
-5157
-5224
-5105
-4664
-4348
-4395
-4706
-5051
-5184
-5216
-5222
-5214
-5077
-4605
-4320
-4405
-4732
-5072
-5236
-5248
-5303
-5308
-5136
-4748
-4506
-4658
-4928
-5280
-5370
-5405
-5440
-5391
-5257
-4830
-4554
-4687
-4988
-5225
-5405
-5423
-5449
-5426
-5271
-4848
-4576
-4584
-4969
-5310
-5481
-5488
-5504
-5521
-5344
-4927
-4672
-4717
-5040
-5420
-5479
-5529
-5612
-5542
-5335
-4878
-4592
-4653
-4944
-5241
-5358
-5464
-5558
-5526
-5360
-4933
-4680
-4681
-5024
-5374
-5533
-5516
-5568
-5544
-5366
-4978
-4665
-4688
-5003
-5404
-5503
-5527
-5589
-5551
-5356
-4960
-4640
-4681
-4956
-5295
-5424
-5534
-5456
-5429
-5287
-4868
-4559
-4611
-4945
-5260
-5367
-5423
-5376
-5420
-5246
-4793
-4514
-4630
-4948
-5253
-5396
-5386
-5336
-5360
-5168
-4760
-4476
-4482
-4864
-5168
-5357
-5372
-5404
-5452
-5229
-4783
-4446
-4464
-4856
-5243
-5336
-5349
-5420
-5410
-5162
-4748
-4432
-4448
-4828
-5180
-5246
-5278
-5305
-5256
-5087
-4639
-4325
-4400
-4730
-5096
-5227
-5212
-5220
-5303
-5115
-4720
-4400
-4402
-4716
-5074
-5152
-5152
-5198
-5157
-5021
-4674
-4351
-4431
-4758
-5083
-5218
-5243
-5241
-5264
-5065
-4581
-4317
-4387
-4697
-5068
-5148
-5210
-5203
-5180
-5020
-4700
-4428
-4417
-4768
-5094
-5208
-5229
-5240
-5200
-5024
-4588
-4251
-4270
-4586
-4955
-5087
-5136
-5152
-5166
-5045
-4649
-4365
-4360
-4665
-4986
-5104
-5078
-5019
-5084
-4880
-4414
-4137
-4201
-4501
-4848
-5054
-5136
-5138
-5158
-5025
-4632
-4283
-4328
-4670
-4970
-5146
-5133
-5185
-5177
-5054
-4603
-4267
-4340
-4624
-5000
-5202
-5260
-5343
-5294
-5133
-4712
-4432
-4400
-4785
-5154
-5297
-5285
-5313
-5321
-5134
-4684
-4436
-4426
-4660
-5110
-5304
-5288
-5244
-5254
-5065
-4704
-4384
-4425
-4811
-5173
-5285
-5326
-5308
-5352
-5204
-4819
-4523
-4540
-4798
-5124
-5340
-5457
-5552
-5610
-5542
-5161
-4957
-4905
-5118
-5289
-5242
-5016
-4703
-4388
-3832
-3070
-2427
-2116
-2237
-2442
-2501
-2520
-2604
-2927
-3010
-2911
-2978
-3510
-4322
-5035
-5424
-5320
-5288
-5304
-5200
-4889
-4643
-4670
-4931
-5184
-5357
-5359
-5312
-5232
-5040
-4500
-4191
-4196
-4520
-4892
-5140
-5180
-5149
-5156
-5028
-4665
-4337
-4361
-4692
-5040
-5152
-5136
-5120
-5116
-4928
-4557
-4285
-4292
-4669
-5028
-5091
-5172
-5108
-5085
-4929
-4487
-4256
-4288
-4584
-4976
-5066
-5126
-5173
-5141
-4980
-4593
-4261
-4298
-4586
-4943
-5048
-5091
-5104
-5045
-4840
-4452
-4124
-4073
-4426
-4784
-4936
-4904
-4893
-4881
-4719
-4300
-3932
-3880
-4216
-4604
-4700
-4679
-4678
-4652
-4533
-4026
-3693
-3650
-3944
-4293
-4441
-4416
-4384
-4336
-4212
-3788
-3445
-3392
-3632
-3937
-4075
-4071
-3989
-3932
-3725
-3265
-2959
-2953
-3299
-3628
-3761
-3757
-3690
-3682
-3504
-3048
-2710
-2704
-2975
-3367
-3520
-3523
-3545
-3472
-3439
-3092
-2772
-2802
-3151
-3577
-3757
-3806
-3828
-3858
-3768
-3336
-3089
-3180
-3572
-3995
-4185
-4272
-4298
-4348
-4251
-3894
-3622
-3651
-4028
-4456
-4683
-4698
-4680
-4745
-4618
-4249
-4012
-4080
-4338
-4681
-4812
-4959
-4943
-4928
-4795
-4438
-4143
-4213
-4548
-4935
-5132
-5138
-5068
-5068
-4960
-4518
-4216
-4205
-4480
-4843
-5063
-5064
-5056
-5069
-4941
-4527
-4233
-4240
-4588
-4977
-5073
-5093
-5102
-5099
-4956
-4510
-4172
-4232
-4551
-4984
-5166
-5219
-5168
-5107
-4960
-4575
-4341
-4348
-4640
-5037
-5190
-5215
-5176
-5254
-5066
-4619
-4332
-4409
-4714
-5132
-5255
-5204
-5261
-5215
-5096
-4668
-4322
-4292
-4634
-5048
-5196
-5198
-5232
-5219
-5120
-4704
-4360
-4387
-4656
-5059
-5260
-5304
-5321
-5314
-5086
-4681
-4375
-4366
-4653
-5088
-5251
-5277
-5264
-5238
-5114
-4688
-4400
-4432
-4724
-5049
-5196
-5240
-5190
-5144
-5049
-4629
-4348
-4366
-4743
-5128
-5297
-5262
-5268
-5228
-5145
-4688
-4388
-4364
-4716
-5100
-5200
-5242
-5285
-5280
-5209
-4802
-4357
-4350
-4681
-5040
-5139
-5174
-5196
-5180
-5080
-4708
-4406
-4396
-4688
-5077
-5195
-5169
-5215
-5104
-4966
-4648
-4368
-4358
-4689
-5111
-5276
-5264
-5295
-5289
-5200
-4768
-4393
-4385
-4684
-5054
-5225
-5235
-5242
-5216
-5099
-4694
-4364
-4352
-4691
-5036
-5129
-5180
-5136
-5181
-5037
-4652
-4320
-4328
-4728
-5113
-5228
-5256
-5244
-5172
-5046
-4745
-4393
-4336
-4614
-4965
-5173
-5183
-5177
-5143
-5085
-4688
-4374
-4404
-4672
-5102
-5262
-5322
-5291
-5280
-5108
-4734
-4411
-4324
-4628
-5112
-5264
-5237
-5232
-5229
-5064
-4668
-4362
-4384
-4653
-4974
-5159
-5202
-5216
-5189
-5105
-4744
-4408
-4421
-4700
-5068
-5209
-5267
-5235
-5165
-5084
-4712
-4374
-4372
-4661
-5064
-5285
-5267
-5168
-5172
-5036
-4610
-4280
-4245
-4439
-4811
-5023
-5132
-5120
-5113
-5038
-4673
-4289
-4286
-4613
-5046
-5196
-5207
-5158
-5120
-4996
-4652
-4303
-4220
-4480
-4976
-5121
-5153
-5149
-5136
-5058
-4711
-4330
-4326
-4544
-4855
-5096
-5180
-5214
-5197
-5053
-4618
-4285
-4281
-4505
-4951
-5160
-5135
-5088
-5136
-5028
-4608
-4284
-4256
-4571
-4971
-5116
-5104
-5124
-5123
-5059
-4620
-4236
-4191
-4521
-4889
-5085
-5194
-5184
-5145
-5089
-4715
-4363
-4356
-4737
-5192
-5416
-5428
-5417
-5404
-5152
-4480
-3886
-3599
-3520
-3628
-3424
-3114
-2896
-2657
-2408
-1969
-1655
-1856
-2441
-3029
-3608
-3974
-4473
-4984
-5259
-4972
-4518
-4376
-4606
-4989
-5144
-5272
-5346
-5364
-5184
-4740
-4392
-4318
-4448
-4739
-4921
-4937
-4944
-4896
-4772
-4408
-4089
-4124
-4468
-4948
-5100
-5126
-5121
-5135
-5060
-4624
-4272
-4249
-4554
-4939
-5060
-5057
-5081
-5097
-5028
-4627
-4217
-4262
-4519
-4833
-5056
-5068
-5078
-5036
-4958
-4522
-4188
-4142
-4444
-4879
-5053
-5124
-5136
-5108
-5015
-4560
-4175
-4109
-4375
-4791
-4997
-5089
-5022
-4928
-4894
-4432
-4056
-4033
-4302
-4576
-4755
-4706
-4639
-4635
-4518
-4129
-3844
-3836
-4044
-4414
-4520
-4516
-4484
-4448
-4297
-3886
-3545
-3457
-3680
-4096
-4296
-4240
-4207
-4156
-4096
-3662
-3242
-3140
-3388
-3654
-3901
-3961
-3916
-3872
-3799
-3350
-3020
-2938
-3200
-3580
-3744
-3756
-3656
-3634
-3592
-3178
-2840
-2832
-3073
-3524
-3715
-3806
-3862
-3761
-3705
-3328
-2949
-2908
-3260
-3661
-3952
-4016
-4084
-4076
-4041
-3727
-3432
-3456
-3772
-4200
-4432
-4456
-4492
-4465
-4466
-4123
-3797
-3760
-4096
-4552
-4743
-4777
-4757
-4831
-4724
-4367
-3996
-4048
-4345
-4744
-4966
-4992
-5016
-5025
-4917
-4526
-4144
-4121
-4383
-4807
-5030
-5040
-5117
-5088
-5023
-4628
-4268
-4172
-4440
-4816
-5012
-5068
-5040
-5024
-4923
-4551
-4207
-4176
-4432
-4780
-4998
-5077
-5101
-4979
-4974
-4560
-4205
-4165
-4419
-4900
-5061
-5034
-4979
-4987
-4960
-4600
-4300
-4256
-4480
-4837
-5083
-5088
-5092
-5146
-5039
-4673
-4320
-4281
-4515
-4945
-5110
-5073
-5160
-5178
-5059
-4656
-4256
-4228
-4523
-4857
-5094
-5152
-5205
-5189
-5071
-4661
-4302
-4230
-4478
-4820
-5107
-5189
-5149
-5150
-5034
-4640
-4301
-4241
-4472
-4937
-5066
-5089
-5151
